{
  "AcquisitionMatrixPE": 64,
  "AcquisitionNumber": 1,
  "AcquisitionTime": "14:40:14.060000",
  "BandwidthPerPixelPhaseEncode": 30.637,
  "BaseResolution": 64,
  "BidsGuess": [
    "func",
    "_acq-epfid2_dir-AP_run-7_bold"
],
  "CoilCombinationMethod": "Sum of Squares",
  "CoilString": "C:HEA;HEP",
  "ConversionSoftware": "dcm2niix",
  "ConversionSoftwareVersion": "v1.0.20240202",
  "DerivedVendorReportedEchoSpacing": 0.000510004,
  "DeviceSerialNumber": "35119",
  "DwellTime": 3.5e-06,
  "EchoTime": 0.03,
  "EffectiveEchoSpacing": 0.000510004,
  "FlipAngle": 78,
  "HeudiconvVersion": "1.1.6",
  "ImageComments": "V",
  "ImageOrientationPatientDICOM": [0.999615, 0.009818, 0.025954, 0, 0.93532, -0.353803],
  "ImageOrientationText": "Tra>Cor(-20.7)>Sag(1.6)",
  "ImageType": [
    "ORIGINAL",
    "PRIMARY",
    "M",
    "ND",
    "MOSAIC"
],
  "ImagingFrequency": 123.251774,
  "InPlanePhaseEncodingDirectionDICOM": "COL",
  "InstitutionAddress": "Chaucer Road  15,Cambridge,UK,GB,CB2 2EF",
  "InstitutionName": "MRC-CBU",
  "MRAcquisitionType": "2D",
  "MagneticFieldStrength": 3,
  "Manufacturer": "Siemens",
  "ManufacturersModelName": "TrioTim",
  "MatrixCoilMode": "SENSE",
  "Modality": "MR",
  "NonlinearGradientCorrection": false,
  "PartialFourier": 1,
  "PatientPosition": "HFS",
  "PercentPhaseFOV": 100,
  "PercentSampling": 100,
  "PhaseEncodingDirection": "j-",
  "PhaseEncodingSteps": 64,
  "PhaseResolution": 1,
  "PixelBandwidth": 2230,
  "ProcedureStepDescription": "CBU^Neuroimaging",
  "ProtocolName": "CBU_DWEPI_BOLD210",
  "PulseSequenceDetails": "%SiemensSeq%\\ep2d_bold",
  "ReceiveCoilName": "HeadMatrix",
  "ReconMatrixPE": 64,
  "RepetitionTime": 2,
  "SAR": 0.141173,
  "ScanOptions": "FS",
  "ScanningSequence": "EP",
  "SequenceName": "*epfid2d1_64",
  "SequenceVariant": "SK",
  "SeriesDescription": "CBU_DWEPI_BOLD210",
  "SeriesNumber": 7,
  "ShimSetting": [-7807, -8728, -2069, 670, 276, 297, -261, 4],
  "SliceThickness": 3,
  "SliceTiming": [0, 1.035, 0.0625, 1.095, 0.1225, 1.1575, 0.1825, 1.2175, 0.245, 1.2775, 0.305, 1.34, 0.365, 1.4, 0.4275, 1.46, 0.4875, 1.5225, 0.5475, 1.5825, 0.61, 1.6425, 0.67, 1.705, 0.73, 1.765, 0.7925, 1.825, 0.8525, 1.8875, 0.9125, 1.9475, 0.975],
  "SoftwareVersions": "syngo MR B15",
  "SpacingBetweenSlices": 3.9,
  "StationName": "MRC35119",
  "TaskName": "faceprocessing",
  "TotalReadoutTime": 0.0321303,
  "TxRefAmp": 310.592,
  "dcmmeta_affine": [
    [-2.998845100402832, 0.0, 0.10822083801031113, 98.60254669189453],
    [-0.029454000294208527, 2.805959939956665, -1.3793004751205444, -57.23212432861328],
    [0.07786200195550919, 1.0614089965820312, 3.64634370803833, -71.4105224609375],
    [0.0, 0.0, 0.0, 1.0]
],
  "dcmmeta_reorient_transform": [
    [0.0, -1.0, 0.0, 63.0],
    [1.0, 0.0, 0.0, 0.0],
    [0.0, 0.0, 1.0, 0.0],
    [0.0, 0.0, 0.0, 1.0]
],
  "dcmmeta_shape": [64, 64, 33, 210],
  "dcmmeta_slice_dim": 2,
  "dcmmeta_version": 0.6,
  "global": {
    "const": {
      "AcquisitionMatrix": [64, 0, 0, 64],
      "AngioFlag": "N",
      "BitsAllocated": 16,
      "BitsStored": 12,
      "Columns": 384,
      "EchoNumbers": 1,
      "EchoTime": 30.0,
      "EchoTrainLength": 1,
      "FlipAngle": 78.0,
      "HighBit": 11,
      "ImageOrientationPatient": [0.999615, 0.009818, 0.025954, 0.0, 0.93532, -0.353803],
      "ImagePositionPatient": [-578.41775, -573.209596, 152.825764],
      "ImageType": [
        "ORIGINAL",
        "PRIMARY",
        "M",
        "ND",
        "MOSAIC"
],
      "ImagedNucleus": "1H",
      "ImagingFrequency": 123.251774,
      "InPlanePhaseEncodingDirection": "COL",
      "MRAcquisitionType": "2D",
      "MagneticFieldStrength": 3.0,
      "Manufacturer": "SIEMENS",
      "ManufacturerModelName": "TrioTim",
      "Modality": "MR",
      "NumberOfAverages": 1.0,
      "NumberOfPhaseEncodingSteps": 64,
      "PercentPhaseFieldOfView": 100.0,
      "PercentSampling": 100.0,
      "PerformedProcedureStepStartTime": "135928.531000",
      "PhotometricInterpretation": "MONOCHROME2",
      "PixelAspectRatio": [1, 1],
      "PixelBandwidth": 2230.0,
      "PixelRepresentation": 0,
      "PixelSpacing": [3.0, 3.0],
      "ProtocolName": "CBU_DWEPI_BOLD210",
      "RepetitionTime": 2000.0,
      "Rows": 384,
      "SAR": 0.141173,
      "SamplesPerPixel": 1,
      "ScanOptions": "FS",
      "ScanningSequence": "EP",
      "SequenceName": "*epfid2d1_64",
      "SequenceVariant": "SK",
      "SeriesDescription": "CBU_DWEPI_BOLD210",
      "SeriesNumber": 7,
      "SeriesTime": "144017.906000",
      "SliceLocation": -43.788955,
      "SliceThickness": 3.0,
      "SmallestImagePixelValue": 0,
      "SoftwareVersions": "syngo MR B15",
      "SpacingBetweenSlices": 3.9,
      "SpecificCharacterSet": "ISO_IR 100",
      "StudyID": "1",
      "StudyTime": "135928.468000",
      "TransmitCoilName": "Body",
      "VariableFlipAngleFlag": "N",
      "WindowCenterWidthExplanation": "Algo1",
      "dBdt": 0.0},
    "slices": {}
  },
  "time": {
    "samples": {
      "AcquisitionNumber": [1, 2, 3, 4, 5, 6, 7, 8, 9, 10, 11, 12, 13, 14, 15, 16, 17, 18, 19, 20, 21, 22, 23, 24, 25, 26, 27, 28, 29, 30, 31, 32, 33, 34, 35, 36, 37, 38, 39, 40, 41, 42, 43, 44, 45, 46, 47, 48, 49, 50, 51, 52, 53, 54, 55, 56, 57, 58, 59, 60, 61, 62, 63, 64, 65, 66, 67, 68, 69, 70, 71, 72, 73, 74, 75, 76, 77, 78, 79, 80, 81, 82, 83, 84, 85, 86, 87, 88, 89, 90, 91, 92, 93, 94, 95, 96, 97, 98, 99, 100, 101, 102, 103, 104, 105, 106, 107, 108, 109, 110, 111, 112, 113, 114, 115, 116, 117, 118, 119, 120, 121, 122, 123, 124, 125, 126, 127, 128, 129, 130, 131, 132, 133, 134, 135, 136, 137, 138, 139, 140, 141, 142, 143, 144, 145, 146, 147, 148, 149, 150, 151, 152, 153, 154, 155, 156, 157, 158, 159, 160, 161, 162, 163, 164, 165, 166, 167, 168, 169, 170, 171, 172, 173, 174, 175, 176, 177, 178, 179, 180, 181, 182, 183, 184, 185, 186, 187, 188, 189, 190, 191, 192, 193, 194, 195, 196, 197, 198, 199, 200, 201, 202, 203, 204, 205, 206, 207, 208, 209, 210],
      "AcquisitionTime": ["144014.060000", "144016.070000", "144018.077500", "144020.085000", "144022.092500", "144024.100000", "144026.110000", "144028.117500", "144030.125000", "144032.132500", "144034.142500", "144036.150000", "144038.157500", "144040.165000", "144042.172500", "144044.182500", "144046.190000", "144048.197500", "144050.205000", "144052.212500", "144054.222500", "144056.230000", "144058.237500", "144100.245000", "144102.252500", "144104.262500", "144106.270000", "144108.277500", "144110.285000", "144112.295000", "144114.302500", "144116.310000", "144118.317500", "144120.325000", "144122.335000", "144124.342500", "144126.350000", "144128.357500", "144130.365000", "144132.375000", "144134.382500", "144136.390000", "144138.397500", "144140.407500", "144142.415000", "144144.422500", "144146.430000", "144148.437500", "144150.447500", "144152.455000", "144154.462500", "144156.470000", "144158.477500", "144200.487500", "144202.495000", "144204.502500", "144206.510000", "144208.520000", "144210.527500", "144212.535000", "144214.542500", "144216.550000", "144218.560000", "144220.567500", "144222.575000", "144224.582500", "144226.590000", "144228.600000", "144230.607500", "144232.615000", "144234.622500", "144236.630000", "144238.640000", "144240.647500", "144242.655000", "144244.662500", "144246.672500", "144248.680000", "144250.687500", "144252.695000", "144254.702500", "144256.712500", "144258.720000", "144300.727500", "144302.735000", "144304.742500", "144306.752500", "144308.760000", "144310.767500", "144312.775000", "144314.785000", "144316.792500", "144318.800000", "144320.807500", "144322.815000", "144324.825000", "144326.832500", "144328.840000", "144330.847500", "144332.855000", "144334.865000", "144336.872500", "144338.880000", "144340.887500", "144342.897500", "144344.905000", "144346.912500", "144348.920000", "144350.927500", "144352.937500", "144354.945000", "144356.952500", "144358.960000", "144400.967500", "144402.977500", "144404.985000", "144406.992500", "144409.000000", "144411.007500", "144413.017500", "144415.025000", "144417.032500", "144419.040000", "144421.050000", "144423.057500", "144425.065000", "144427.072500", "144429.080000", "144431.090000", "144433.097500", "144435.105000", "144437.112500", "144439.120000", "144441.130000", "144443.137500", "144445.145000", "144447.152500", "144449.162500", "144451.170000", "144453.177500", "144455.185000", "144457.192500", "144459.202500", "144501.210000", "144503.217500", "144505.225000", "144507.232500", "144509.242500", "144511.250000", "144513.257500", "144515.265000", "144517.275000", "144519.282500", "144521.290000", "144523.297500", "144525.305000", "144527.315000", "144529.322500", "144531.330000", "144533.337500", "144535.345000", "144537.355000", "144539.362500", "144541.370000", "144543.377500", "144545.387500", "144547.395000", "144549.402500", "144551.410000", "144553.417500", "144555.427500", "144557.435000", "144559.442500", "144601.450000", "144603.457500", "144605.467500", "144607.475000", "144609.482500", "144611.490000", "144613.497500", "144615.507500", "144617.515000", "144619.522500", "144621.530000", "144623.540000", "144625.547500", "144627.555000", "144629.562500", "144631.570000", "144633.580000", "144635.587500", "144637.595000", "144639.602500", "144641.610000", "144643.620000", "144645.627500", "144647.635000", "144649.642500", "144651.652500", "144653.660000", "144655.667500", "144657.675000", "144659.682500", "144701.692500", "144703.700000", "144705.707500", "144707.715000", "144709.722500", "144711.732500", "144713.740000"],
      "ContentTime": ["144017.921000", "144019.906000", "144021.906000", "144023.906000", "144025.906000", "144027.906000", "144029.906000", "144031.906000", "144033.906000", "144035.906000", "144037.906000", "144039.906000", "144041.906000", "144043.906000", "144045.906000", "144047.906000", "144049.906000", "144051.906000", "144053.906000", "144055.906000", "144057.906000", "144059.906000", "144101.906000", "144103.906000", "144105.906000", "144107.906000", "144109.906000", "144111.906000", "144113.906000", "144115.906000", "144117.906000", "144119.906000", "144121.906000", "144123.906000", "144125.906000", "144127.906000", "144129.906000", "144131.906000", "144133.906000", "144135.906000", "144137.906000", "144139.906000", "144141.906000", "144143.906000", "144145.906000", "144147.906000", "144149.906000", "144151.906000", "144153.906000", "144155.906000", "144157.906000", "144159.906000", "144201.906000", "144203.906000", "144205.906000", "144207.906000", "144209.906000", "144211.906000", "144213.906000", "144215.906000", "144217.906000", "144219.906000", "144221.906000", "144223.906000", "144225.906000", "144227.906000", "144229.906000", "144231.906000", "144233.906000", "144235.906000", "144237.906000", "144239.906000", "144241.906000", "144243.906000", "144245.906000", "144247.906000", "144249.906000", "144251.906000", "144253.906000", "144255.906000", "144257.906000", "144259.906000", "144301.906000", "144303.906000", "144305.906000", "144307.906000", "144309.906000", "144311.906000", "144313.906000", "144315.906000", "144317.906000", "144319.906000", "144321.906000", "144323.906000", "144325.906000", "144327.906000", "144329.906000", "144331.906000", "144333.906000", "144335.906000", "144337.906000", "144339.906000", "144341.906000", "144343.906000", "144345.906000", "144347.906000", "144349.906000", "144351.906000", "144353.906000", "144355.906000", "144357.906000", "144359.906000", "144401.906000", "144403.906000", "144405.906000", "144407.906000", "144409.906000", "144411.906000", "144413.906000", "144415.906000", "144417.906000", "144419.906000", "144421.906000", "144423.906000", "144425.906000", "144427.906000", "144429.906000", "144431.906000", "144433.906000", "144435.906000", "144437.906000", "144439.906000", "144441.906000", "144443.906000", "144445.906000", "144447.906000", "144449.906000", "144451.906000", "144453.906000", "144455.906000", "144457.906000", "144459.906000", "144501.906000", "144503.906000", "144505.906000", "144507.906000", "144509.906000", "144511.906000", "144513.906000", "144515.906000", "144517.906000", "144519.906000", "144521.906000", "144523.906000", "144525.906000", "144527.906000", "144529.906000", "144531.906000", "144533.906000", "144535.906000", "144537.906000", "144539.906000", "144541.906000", "144543.906000", "144545.906000", "144547.906000", "144549.906000", "144551.906000", "144553.906000", "144555.906000", "144557.906000", "144559.906000", "144601.906000", "144603.906000", "144605.906000", "144607.906000", "144609.906000", "144611.906000", "144613.906000", "144615.906000", "144617.906000", "144619.906000", "144621.906000", "144623.906000", "144625.906000", "144627.906000", "144629.906000", "144631.906000", "144633.906000", "144635.906000", "144637.906000", "144639.906000", "144641.906000", "144643.906000", "144645.906000", "144647.906000", "144649.906000", "144651.906000", "144653.906000", "144655.906000", "144657.906000", "144659.906000", "144701.906000", "144703.906000", "144705.906000", "144707.906000", "144709.906000", "144711.906000", "144713.906000", "144715.609000"],
      "InstanceCreationTime": ["144017.921000", "144019.906000", "144021.906000", "144023.906000", "144025.906000", "144027.906000", "144029.906000", "144031.906000", "144033.906000", "144035.906000", "144037.906000", "144039.906000", "144041.906000", "144043.906000", "144045.906000", "144047.906000", "144049.906000", "144051.906000", "144053.906000", "144055.906000", "144057.906000", "144059.906000", "144101.906000", "144103.906000", "144105.906000", "144107.906000", "144109.906000", "144111.906000", "144113.906000", "144115.906000", "144117.906000", "144119.906000", "144121.906000", "144123.906000", "144125.906000", "144127.906000", "144129.906000", "144131.906000", "144133.906000", "144135.906000", "144137.906000", "144139.906000", "144141.906000", "144143.906000", "144145.906000", "144147.906000", "144149.906000", "144151.906000", "144153.906000", "144155.906000", "144157.906000", "144159.906000", "144201.906000", "144203.906000", "144205.906000", "144207.906000", "144209.906000", "144211.906000", "144213.906000", "144215.906000", "144217.906000", "144219.906000", "144221.906000", "144223.906000", "144225.906000", "144227.906000", "144229.906000", "144231.906000", "144233.906000", "144235.906000", "144237.906000", "144239.906000", "144241.906000", "144243.906000", "144245.906000", "144247.906000", "144249.906000", "144251.906000", "144253.906000", "144255.906000", "144257.906000", "144259.906000", "144301.906000", "144303.906000", "144305.906000", "144307.906000", "144309.906000", "144311.906000", "144313.906000", "144315.906000", "144317.906000", "144319.906000", "144321.906000", "144323.906000", "144325.906000", "144327.906000", "144329.906000", "144331.906000", "144333.906000", "144335.906000", "144337.906000", "144339.906000", "144341.906000", "144343.906000", "144345.906000", "144347.906000", "144349.906000", "144351.906000", "144353.906000", "144355.906000", "144357.906000", "144359.906000", "144401.906000", "144403.906000", "144405.906000", "144407.906000", "144409.906000", "144411.906000", "144413.906000", "144415.906000", "144417.906000", "144419.906000", "144421.906000", "144423.906000", "144425.906000", "144427.906000", "144429.906000", "144431.906000", "144433.906000", "144435.906000", "144437.906000", "144439.906000", "144441.906000", "144443.906000", "144445.906000", "144447.906000", "144449.906000", "144451.906000", "144453.906000", "144455.906000", "144457.906000", "144459.906000", "144501.906000", "144503.906000", "144505.906000", "144507.906000", "144509.906000", "144511.906000", "144513.906000", "144515.906000", "144517.906000", "144519.906000", "144521.906000", "144523.906000", "144525.906000", "144527.906000", "144529.906000", "144531.906000", "144533.906000", "144535.906000", "144537.906000", "144539.906000", "144541.906000", "144543.906000", "144545.906000", "144547.906000", "144549.906000", "144551.906000", "144553.906000", "144555.906000", "144557.906000", "144559.906000", "144601.906000", "144603.906000", "144605.906000", "144607.906000", "144609.906000", "144611.906000", "144613.906000", "144615.906000", "144617.906000", "144619.906000", "144621.906000", "144623.906000", "144625.906000", "144627.906000", "144629.906000", "144631.906000", "144633.906000", "144635.906000", "144637.906000", "144639.906000", "144641.906000", "144643.906000", "144645.906000", "144647.906000", "144649.906000", "144651.906000", "144653.906000", "144655.906000", "144657.906000", "144659.906000", "144701.906000", "144703.906000", "144705.906000", "144707.906000", "144709.906000", "144711.906000", "144713.906000", "144715.609000"],
      "InstanceNumber": [1, 2, 3, 4, 5, 6, 7, 8, 9, 10, 11, 12, 13, 14, 15, 16, 17, 18, 19, 20, 21, 22, 23, 24, 25, 26, 27, 28, 29, 30, 31, 32, 33, 34, 35, 36, 37, 38, 39, 40, 41, 42, 43, 44, 45, 46, 47, 48, 49, 50, 51, 52, 53, 54, 55, 56, 57, 58, 59, 60, 61, 62, 63, 64, 65, 66, 67, 68, 69, 70, 71, 72, 73, 74, 75, 76, 77, 78, 79, 80, 81, 82, 83, 84, 85, 86, 87, 88, 89, 90, 91, 92, 93, 94, 95, 96, 97, 98, 99, 100, 101, 102, 103, 104, 105, 106, 107, 108, 109, 110, 111, 112, 113, 114, 115, 116, 117, 118, 119, 120, 121, 122, 123, 124, 125, 126, 127, 128, 129, 130, 131, 132, 133, 134, 135, 136, 137, 138, 139, 140, 141, 142, 143, 144, 145, 146, 147, 148, 149, 150, 151, 152, 153, 154, 155, 156, 157, 158, 159, 160, 161, 162, 163, 164, 165, 166, 167, 168, 169, 170, 171, 172, 173, 174, 175, 176, 177, 178, 179, 180, 181, 182, 183, 184, 185, 186, 187, 188, 189, 190, 191, 192, 193, 194, 195, 196, 197, 198, 199, 200, 201, 202, 203, 204, 205, 206, 207, 208, 209, 210],
      "LargestImagePixelValue": [2170, 2039, 2003, 1986, 1976, 1979, 1968, 1977, 1966, 1974, 1977, 1955, 1953, 1960, 1964, 1973, 1960, 1967, 1971, 1980, 1968, 2069, 2011, 2000, 1974, 1975, 1980, 2000, 1983, 1981, 1968, 1987, 1988, 1989, 1997, 1995, 1994, 1975, 1991, 1994, 1974, 1998, 1979, 1994, 1980, 1992, 2005, 1982, 1975, 1974, 1984, 1994, 1992, 1972, 1989, 1989, 1975, 1986, 1974, 1982, 1979, 1986, 1985, 1991, 1987, 1972, 1972, 1984, 1980, 1985, 1975, 1976, 1971, 1980, 1964, 1984, 1974, 1973, 1978, 1981, 1979, 1974, 1989, 1972, 1977, 1983, 1986, 1972, 1984, 1974, 1982, 1980, 1995, 1982, 1994, 1986, 1999, 1994, 1963, 1994, 1987, 1975, 1983, 1979, 1952, 1993, 1995, 2042, 2025, 1983, 2003, 2001, 1995, 2008, 2008, 2001, 2007, 2010, 2013, 1998, 2000, 2010, 2008, 2004, 2024, 2009, 2003, 2006, 2020, 2005, 1993, 2007, 2007, 2015, 2009, 2001, 2022, 2012, 2015, 2016, 2008, 2006, 2023, 2007, 2013, 1996, 2010, 2020, 1999, 2007, 2024, 2011, 2023, 2009, 2008, 2003, 2008, 2004, 2022, 2014, 2018, 2010, 2008, 2016, 2016, 2021, 2012, 2010, 2028, 2020, 2005, 2021, 2010, 1995, 2015, 2024, 2013, 2029, 2020, 2032, 2024, 2026, 2013, 2015, 2022, 2020, 2014, 2012, 2026, 2014, 2013, 2008, 2016, 2022, 2012, 2031, 2092, 1958, 1972, 1952, 1979, 1980, 1974, 1997, 1980, 1991, 1990, 1985, 1985, 1979],
      "WindowCenter": [775.0, 768.0, 765.0, 763.0, 761.0, 762.0, 765.0, 766.0, 766.0, 767.0, 767.0, 766.0, 769.0, 771.0, 770.0, 769.0, 771.0, 771.0, 771.0, 771.0, 770.0, 773.0, 773.0, 773.0, 770.0, 768.0, 766.0, 765.0, 763.0, 762.0, 762.0, 764.0, 768.0, 768.0, 767.0, 767.0, 768.0, 767.0, 768.0, 770.0, 770.0, 770.0, 770.0, 771.0, 771.0, 770.0, 769.0, 769.0, 769.0, 770.0, 769.0, 769.0, 769.0, 768.0, 769.0, 769.0, 769.0, 768.0, 768.0, 768.0, 769.0, 770.0, 769.0, 768.0, 768.0, 769.0, 769.0, 768.0, 767.0, 767.0, 768.0, 768.0, 769.0, 768.0, 767.0, 768.0, 769.0, 769.0, 768.0, 768.0, 768.0, 768.0, 769.0, 769.0, 768.0, 769.0, 769.0, 769.0, 769.0, 769.0, 769.0, 768.0, 768.0, 768.0, 768.0, 769.0, 769.0, 767.0, 766.0, 767.0, 766.0, 765.0, 765.0, 766.0, 765.0, 766.0, 767.0, 771.0, 773.0, 769.0, 768.0, 768.0, 770.0, 771.0, 769.0, 769.0, 769.0, 770.0, 770.0, 770.0, 770.0, 771.0, 770.0, 769.0, 769.0, 769.0, 769.0, 768.0, 768.0, 768.0, 769.0, 770.0, 771.0, 770.0, 768.0, 768.0, 770.0, 770.0, 769.0, 768.0, 768.0, 768.0, 768.0, 767.0, 767.0, 767.0, 768.0, 768.0, 768.0, 768.0, 768.0, 769.0, 769.0, 768.0, 769.0, 769.0, 768.0, 769.0, 769.0, 769.0, 768.0, 769.0, 769.0, 769.0, 768.0, 768.0, 768.0, 768.0, 768.0, 768.0, 768.0, 769.0, 769.0, 768.0, 768.0, 768.0, 770.0, 770.0, 770.0, 769.0, 768.0, 767.0, 768.0, 769.0, 770.0, 770.0, 770.0, 770.0, 769.0, 769.0, 769.0, 770.0, 770.0, 769.0, 769.0, 769.0, 772.0, 769.0, 768.0, 767.0, 768.0, 770.0, 768.0, 767.0, 767.0, 769.0, 770.0, 770.0, 768.0, 768.0],
      "WindowWidth": [1655.0, 1637.0, 1627.0, 1621.0, 1617.0, 1618.0, 1626.0, 1630.0, 1629.0, 1632.0, 1631.0, 1630.0, 1637.0, 1643.0, 1639.0, 1637.0, 1642.0, 1642.0, 1641.0, 1642.0, 1638.0, 1647.0, 1648.0, 1648.0, 1640.0, 1634.0, 1628.0, 1626.0, 1622.0, 1619.0, 1620.0, 1625.0, 1634.0, 1635.0, 1633.0, 1633.0, 1634.0, 1633.0, 1636.0, 1639.0, 1640.0, 1640.0, 1639.0, 1642.0, 1642.0, 1640.0, 1637.0, 1637.0, 1638.0, 1639.0, 1638.0, 1637.0, 1637.0, 1636.0, 1638.0, 1637.0, 1636.0, 1634.0, 1634.0, 1634.0, 1636.0, 1639.0, 1638.0, 1636.0, 1634.0, 1637.0, 1637.0, 1635.0, 1633.0, 1633.0, 1634.0, 1635.0, 1637.0, 1635.0, 1633.0, 1635.0, 1638.0, 1637.0, 1635.0, 1634.0, 1634.0, 1635.0, 1638.0, 1636.0, 1636.0, 1636.0, 1638.0, 1637.0, 1638.0, 1638.0, 1636.0, 1636.0, 1635.0, 1634.0, 1636.0, 1636.0, 1638.0, 1633.0, 1629.0, 1633.0, 1628.0, 1628.0, 1628.0, 1630.0, 1628.0, 1630.0, 1631.0, 1644.0, 1647.0, 1638.0, 1636.0, 1634.0, 1639.0, 1643.0, 1639.0, 1637.0, 1637.0, 1639.0, 1640.0, 1640.0, 1640.0, 1642.0, 1640.0, 1637.0, 1637.0, 1638.0, 1638.0, 1636.0, 1636.0, 1636.0, 1637.0, 1641.0, 1642.0, 1639.0, 1636.0, 1635.0, 1639.0, 1640.0, 1637.0, 1635.0, 1634.0, 1635.0, 1636.0, 1633.0, 1633.0, 1632.0, 1634.0, 1636.0, 1636.0, 1634.0, 1636.0, 1638.0, 1638.0, 1636.0, 1637.0, 1637.0, 1635.0, 1637.0, 1637.0, 1637.0, 1636.0, 1637.0, 1638.0, 1637.0, 1635.0, 1636.0, 1636.0, 1635.0, 1635.0, 1635.0, 1636.0, 1638.0, 1637.0, 1635.0, 1634.0, 1635.0, 1640.0, 1642.0, 1641.0, 1638.0, 1635.0, 1634.0, 1635.0, 1638.0, 1639.0, 1639.0, 1641.0, 1640.0, 1639.0, 1638.0, 1639.0, 1639.0, 1639.0, 1639.0, 1638.0, 1639.0, 1647.0, 1637.0, 1635.0, 1632.0, 1636.0, 1640.0, 1635.0, 1633.0, 1632.0, 1637.0, 1641.0, 1640.0, 1636.0, 1635.0]
    },
    "slices": {}
  }
}