{
  "AcquisitionMatrixPE": 64,
  "AcquisitionNumber": 1,
  "AcquisitionTime": "14:55:8.702500",
  "BandwidthPerPixelPhaseEncode": 30.637,
  "BaseResolution": 64,
  "BidsGuess": [
    "func",
    "_acq-epfid2_dir-AP_run-9_bold"
],
  "CoilCombinationMethod": "Sum of Squares",
  "CoilString": "C:HEA;HEP",
  "ConversionSoftware": "dcm2niix",
  "ConversionSoftwareVersion": "v1.0.20240202",
  "DerivedVendorReportedEchoSpacing": 0.000510004,
  "DeviceSerialNumber": "35119",
  "DwellTime": 3.5e-06,
  "EchoTime": 0.03,
  "EffectiveEchoSpacing": 0.000510004,
  "FlipAngle": 78,
  "HeudiconvVersion": "1.1.6",
  "ImageComments": "V",
  "ImageOrientationPatientDICOM": [0.999615, 0.009818, 0.025954, 0, 0.93532, -0.353803],
  "ImageOrientationText": "Tra>Cor(-20.7)>Sag(1.6)",
  "ImageType": [
    "ORIGINAL",
    "PRIMARY",
    "M",
    "ND",
    "MOSAIC"
],
  "ImagingFrequency": 123.251774,
  "InPlanePhaseEncodingDirectionDICOM": "COL",
  "InstitutionAddress": "Chaucer Road  15,Cambridge,UK,GB,CB2 2EF",
  "InstitutionName": "MRC-CBU",
  "MRAcquisitionType": "2D",
  "MagneticFieldStrength": 3,
  "Manufacturer": "Siemens",
  "ManufacturersModelName": "TrioTim",
  "MatrixCoilMode": "SENSE",
  "Modality": "MR",
  "NonlinearGradientCorrection": false,
  "PartialFourier": 1,
  "PatientPosition": "HFS",
  "PercentPhaseFOV": 100,
  "PercentSampling": 100,
  "PhaseEncodingDirection": "j-",
  "PhaseEncodingSteps": 64,
  "PhaseResolution": 1,
  "PixelBandwidth": 2230,
  "ProcedureStepDescription": "CBU^Neuroimaging",
  "ProtocolName": "CBU_DWEPI_BOLD210",
  "PulseSequenceDetails": "%SiemensSeq%\\ep2d_bold",
  "ReceiveCoilName": "HeadMatrix",
  "ReconMatrixPE": 64,
  "RepetitionTime": 2,
  "SAR": 0.141173,
  "ScanOptions": "FS",
  "ScanningSequence": "EP",
  "SequenceName": "*epfid2d1_64",
  "SequenceVariant": "SK",
  "SeriesDescription": "CBU_DWEPI_BOLD210",
  "SeriesNumber": 9,
  "ShimSetting": [-7807, -8728, -2069, 670, 276, 297, -261, 4],
  "SliceThickness": 3,
  "SliceTiming": [0, 1.0325, 0.06, 1.095, 0.12, 1.155, 0.1825, 1.215, 0.2425, 1.2775, 0.3025, 1.3375, 0.365, 1.3975, 0.425, 1.46, 0.485, 1.52, 0.5475, 1.58, 0.6075, 1.6425, 0.6675, 1.7025, 0.73, 1.7625, 0.79, 1.825, 0.85, 1.885, 0.9125, 1.945, 0.9725],
  "SoftwareVersions": "syngo MR B15",
  "SpacingBetweenSlices": 3.9,
  "StationName": "MRC35119",
  "TaskName": "faceprocessing",
  "TotalReadoutTime": 0.0321303,
  "TxRefAmp": 310.592,
  "dcmmeta_affine": [
    [-2.998845100402832, 0.0, 0.10822083801031113, 98.60254669189453],
    [-0.029454000294208527, 2.805959939956665, -1.3793004751205444, -57.23212432861328],
    [0.07786200195550919, 1.0614089965820312, 3.64634370803833, -71.4105224609375],
    [0.0, 0.0, 0.0, 1.0]
],
  "dcmmeta_reorient_transform": [
    [0.0, -1.0, 0.0, 63.0],
    [1.0, 0.0, 0.0, 0.0],
    [0.0, 0.0, 1.0, 0.0],
    [0.0, 0.0, 0.0, 1.0]
],
  "dcmmeta_shape": [64, 64, 33, 210],
  "dcmmeta_slice_dim": 2,
  "dcmmeta_version": 0.6,
  "global": {
    "const": {
      "AcquisitionMatrix": [64, 0, 0, 64],
      "AngioFlag": "N",
      "BitsAllocated": 16,
      "BitsStored": 12,
      "Columns": 384,
      "EchoNumbers": 1,
      "EchoTime": 30.0,
      "EchoTrainLength": 1,
      "FlipAngle": 78.0,
      "HighBit": 11,
      "ImageOrientationPatient": [0.999615, 0.009818, 0.025954, 0.0, 0.93532, -0.353803],
      "ImagePositionPatient": [-578.41775, -573.209596, 152.825764],
      "ImageType": [
        "ORIGINAL",
        "PRIMARY",
        "M",
        "ND",
        "MOSAIC"
],
      "ImagedNucleus": "1H",
      "ImagingFrequency": 123.251774,
      "InPlanePhaseEncodingDirection": "COL",
      "MRAcquisitionType": "2D",
      "MagneticFieldStrength": 3.0,
      "Manufacturer": "SIEMENS",
      "ManufacturerModelName": "TrioTim",
      "Modality": "MR",
      "NumberOfAverages": 1.0,
      "NumberOfPhaseEncodingSteps": 64,
      "PercentPhaseFieldOfView": 100.0,
      "PercentSampling": 100.0,
      "PerformedProcedureStepStartTime": "135928.531000",
      "PhotometricInterpretation": "MONOCHROME2",
      "PixelAspectRatio": [1, 1],
      "PixelBandwidth": 2230.0,
      "PixelRepresentation": 0,
      "PixelSpacing": [3.0, 3.0],
      "ProtocolName": "CBU_DWEPI_BOLD210",
      "RepetitionTime": 2000.0,
      "Rows": 384,
      "SAR": 0.141173,
      "SamplesPerPixel": 1,
      "ScanOptions": "FS",
      "ScanningSequence": "EP",
      "SequenceName": "*epfid2d1_64",
      "SequenceVariant": "SK",
      "SeriesDescription": "CBU_DWEPI_BOLD210",
      "SeriesNumber": 9,
      "SeriesTime": "145512.375000",
      "SliceLocation": -43.788955,
      "SliceThickness": 3.0,
      "SmallestImagePixelValue": 0,
      "SoftwareVersions": "syngo MR B15",
      "SpacingBetweenSlices": 3.9,
      "SpecificCharacterSet": "ISO_IR 100",
      "StudyID": "1",
      "StudyTime": "135928.468000",
      "TransmitCoilName": "Body",
      "VariableFlipAngleFlag": "N",
      "WindowCenterWidthExplanation": "Algo1",
      "dBdt": 0.0},
    "slices": {}
  },
  "time": {
    "samples": {
      "AcquisitionNumber": [1, 2, 3, 4, 5, 6, 7, 8, 9, 10, 11, 12, 13, 14, 15, 16, 17, 18, 19, 20, 21, 22, 23, 24, 25, 26, 27, 28, 29, 30, 31, 32, 33, 34, 35, 36, 37, 38, 39, 40, 41, 42, 43, 44, 45, 46, 47, 48, 49, 50, 51, 52, 53, 54, 55, 56, 57, 58, 59, 60, 61, 62, 63, 64, 65, 66, 67, 68, 69, 70, 71, 72, 73, 74, 75, 76, 77, 78, 79, 80, 81, 82, 83, 84, 85, 86, 87, 88, 89, 90, 91, 92, 93, 94, 95, 96, 97, 98, 99, 100, 101, 102, 103, 104, 105, 106, 107, 108, 109, 110, 111, 112, 113, 114, 115, 116, 117, 118, 119, 120, 121, 122, 123, 124, 125, 126, 127, 128, 129, 130, 131, 132, 133, 134, 135, 136, 137, 138, 139, 140, 141, 142, 143, 144, 145, 146, 147, 148, 149, 150, 151, 152, 153, 154, 155, 156, 157, 158, 159, 160, 161, 162, 163, 164, 165, 166, 167, 168, 169, 170, 171, 172, 173, 174, 175, 176, 177, 178, 179, 180, 181, 182, 183, 184, 185, 186, 187, 188, 189, 190, 191, 192, 193, 194, 195, 196, 197, 198, 199, 200, 201, 202, 203, 204, 205, 206, 207, 208, 209, 210],
      "AcquisitionTime": ["145508.702500", "145510.710000", "145512.717500", "145514.725000", "145516.732500", "145518.742500", "145520.750000", "145522.757500", "145524.765000", "145526.772500", "145528.782500", "145530.790000", "145532.797500", "145534.805000", "145536.815000", "145538.822500", "145540.830000", "145542.837500", "145544.845000", "145546.855000", "145548.862500", "145550.870000", "145552.877500", "145554.885000", "145556.895000", "145558.902500", "145600.910000", "145602.917500", "145604.925000", "145606.935000", "145608.942500", "145610.950000", "145612.957500", "145614.967500", "145616.975000", "145618.982500", "145620.990000", "145622.997500", "145625.007500", "145627.015000", "145629.022500", "145631.030000", "145633.037500", "145635.047500", "145637.055000", "145639.062500", "145641.070000", "145643.080000", "145645.087500", "145647.095000", "145649.102500", "145651.110000", "145653.120000", "145655.127500", "145657.135000", "145659.142500", "145701.150000", "145703.160000", "145705.167500", "145707.175000", "145709.182500", "145711.192500", "145713.200000", "145715.207500", "145717.215000", "145719.222500", "145721.232500", "145723.240000", "145725.247500", "145727.255000", "145729.262500", "145731.272500", "145733.280000", "145735.287500", "145737.295000", "145739.302500", "145741.312500", "145743.320000", "145745.327500", "145747.335000", "145749.345000", "145751.352500", "145753.360000", "145755.367500", "145757.375000", "145759.385000", "145801.392500", "145803.400000", "145805.407500", "145807.415000", "145809.425000", "145811.432500", "145813.440000", "145815.447500", "145817.457500", "145819.465000", "145821.472500", "145823.480000", "145825.487500", "145827.497500", "145829.505000", "145831.512500", "145833.520000", "145835.527500", "145837.537500", "145839.545000", "145841.552500", "145843.560000", "145845.570000", "145847.577500", "145849.585000", "145851.592500", "145853.600000", "145855.610000", "145857.617500", "145859.625000", "145901.632500", "145903.640000", "145905.650000", "145907.657500", "145909.665000", "145911.672500", "145913.680000", "145915.690000", "145917.697500", "145919.705000", "145921.712500", "145923.722500", "145925.730000", "145927.737500", "145929.745000", "145931.752500", "145933.762500", "145935.770000", "145937.777500", "145939.785000", "145941.792500", "145943.802500", "145945.810000", "145947.817500", "145949.825000", "145951.835000", "145953.842500", "145955.850000", "145957.857500", "145959.865000", "150001.875000", "150003.882500", "150005.890000", "150007.897500", "150009.905000", "150011.915000", "150013.922500", "150015.930000", "150017.937500", "150019.947500", "150021.955000", "150023.962500", "150025.970000", "150027.977500", "150029.987500", "150031.995000", "150034.002500", "150036.010000", "150038.017500", "150040.027500", "150042.035000", "150044.042500", "150046.050000", "150048.060000", "150050.067500", "150052.075000", "150054.082500", "150056.090000", "150058.100000", "150100.107500", "150102.115000", "150104.122500", "150106.130000", "150108.140000", "150110.147500", "150112.155000", "150114.162500", "150116.170000", "150118.180000", "150120.187500", "150122.195000", "150124.202500", "150126.212500", "150128.220000", "150130.227500", "150132.235000", "150134.242500", "150136.252500", "150138.260000", "150140.267500", "150142.275000", "150144.282500", "150146.292500", "150148.300000", "150150.307500", "150152.315000", "150154.325000", "150156.332500", "150158.340000", "150200.347500", "150202.355000", "150204.365000", "150206.372500", "150208.380000"],
      "ContentTime": ["145512.375000", "145514.359000", "145516.359000", "145518.359000", "145520.359000", "145522.359000", "145524.359000", "145526.359000", "145528.359000", "145530.359000", "145532.359000", "145534.359000", "145536.359000", "145538.359000", "145540.359000", "145542.359000", "145544.359000", "145546.359000", "145548.359000", "145550.359000", "145552.359000", "145554.359000", "145556.359000", "145558.359000", "145600.359000", "145602.359000", "145604.359000", "145606.359000", "145608.359000", "145610.359000", "145612.359000", "145614.359000", "145616.359000", "145618.359000", "145620.359000", "145622.359000", "145624.359000", "145626.359000", "145628.359000", "145630.359000", "145632.359000", "145634.359000", "145636.359000", "145638.359000", "145640.359000", "145642.359000", "145644.359000", "145646.359000", "145648.359000", "145650.359000", "145652.359000", "145654.359000", "145656.359000", "145658.359000", "145700.359000", "145702.359000", "145704.359000", "145706.359000", "145708.359000", "145710.359000", "145712.359000", "145714.359000", "145716.359000", "145718.359000", "145720.359000", "145722.359000", "145724.359000", "145726.359000", "145728.359000", "145730.359000", "145732.359000", "145734.359000", "145736.359000", "145738.359000", "145740.359000", "145742.359000", "145744.359000", "145746.359000", "145748.359000", "145750.359000", "145752.359000", "145754.359000", "145756.359000", "145758.359000", "145800.359000", "145802.359000", "145804.359000", "145806.359000", "145808.359000", "145810.359000", "145812.359000", "145814.359000", "145816.359000", "145818.359000", "145820.359000", "145822.359000", "145824.359000", "145826.359000", "145828.359000", "145830.359000", "145832.359000", "145834.359000", "145836.359000", "145838.359000", "145840.359000", "145842.875000", "145844.359000", "145846.359000", "145848.359000", "145850.359000", "145852.359000", "145854.359000", "145856.359000", "145858.359000", "145900.359000", "145902.359000", "145904.359000", "145906.359000", "145908.359000", "145910.359000", "145912.359000", "145914.359000", "145916.359000", "145918.359000", "145920.359000", "145922.359000", "145924.359000", "145926.359000", "145928.359000", "145930.359000", "145932.359000", "145934.359000", "145936.359000", "145938.359000", "145940.359000", "145942.359000", "145944.359000", "145946.359000", "145948.375000", "145950.859000", "145952.359000", "145954.359000", "145956.359000", "145958.359000", "150000.359000", "150002.359000", "150004.359000", "150006.359000", "150008.359000", "150010.359000", "150012.359000", "150014.359000", "150016.359000", "150018.359000", "150020.359000", "150022.359000", "150024.359000", "150026.359000", "150028.359000", "150030.359000", "150032.359000", "150034.375000", "150036.359000", "150038.359000", "150040.359000", "150042.875000", "150044.375000", "150046.375000", "150048.359000", "150050.359000", "150052.359000", "150054.375000", "150056.359000", "150058.359000", "150100.359000", "150102.359000", "150104.359000", "150106.359000", "150108.359000", "150110.359000", "150112.359000", "150114.359000", "150116.359000", "150118.359000", "150120.359000", "150122.359000", "150124.359000", "150126.359000", "150128.359000", "150130.359000", "150132.359000", "150134.359000", "150136.359000", "150138.359000", "150140.359000", "150142.359000", "150144.359000", "150146.359000", "150148.375000", "150150.359000", "150152.875000", "150154.359000", "150156.359000", "150158.359000", "150200.359000", "150202.359000", "150204.359000", "150206.359000", "150208.359000", "150210.234000"],
      "InstanceCreationTime": ["145512.375000", "145514.359000", "145516.359000", "145518.359000", "145520.359000", "145522.359000", "145524.359000", "145526.359000", "145528.359000", "145530.359000", "145532.359000", "145534.359000", "145536.359000", "145538.359000", "145540.359000", "145542.359000", "145544.359000", "145546.359000", "145548.359000", "145550.359000", "145552.359000", "145554.359000", "145556.359000", "145558.359000", "145600.359000", "145602.359000", "145604.359000", "145606.359000", "145608.359000", "145610.359000", "145612.359000", "145614.359000", "145616.359000", "145618.359000", "145620.359000", "145622.359000", "145624.359000", "145626.359000", "145628.359000", "145630.359000", "145632.359000", "145634.359000", "145636.359000", "145638.359000", "145640.359000", "145642.359000", "145644.359000", "145646.359000", "145648.359000", "145650.359000", "145652.359000", "145654.359000", "145656.359000", "145658.359000", "145700.359000", "145702.359000", "145704.359000", "145706.359000", "145708.359000", "145710.359000", "145712.359000", "145714.359000", "145716.359000", "145718.359000", "145720.359000", "145722.359000", "145724.359000", "145726.359000", "145728.359000", "145730.359000", "145732.359000", "145734.359000", "145736.359000", "145738.359000", "145740.359000", "145742.359000", "145744.359000", "145746.359000", "145748.359000", "145750.359000", "145752.359000", "145754.359000", "145756.359000", "145758.359000", "145800.359000", "145802.359000", "145804.359000", "145806.359000", "145808.359000", "145810.359000", "145812.359000", "145814.359000", "145816.359000", "145818.359000", "145820.359000", "145822.359000", "145824.359000", "145826.359000", "145828.359000", "145830.359000", "145832.359000", "145834.359000", "145836.359000", "145838.359000", "145840.359000", "145842.875000", "145844.359000", "145846.359000", "145848.359000", "145850.359000", "145852.359000", "145854.359000", "145856.359000", "145858.359000", "145900.359000", "145902.359000", "145904.359000", "145906.359000", "145908.359000", "145910.359000", "145912.359000", "145914.359000", "145916.359000", "145918.359000", "145920.359000", "145922.359000", "145924.359000", "145926.359000", "145928.359000", "145930.359000", "145932.359000", "145934.359000", "145936.359000", "145938.359000", "145940.359000", "145942.359000", "145944.359000", "145946.359000", "145948.375000", "145950.859000", "145952.359000", "145954.359000", "145956.359000", "145958.359000", "150000.359000", "150002.359000", "150004.359000", "150006.359000", "150008.359000", "150010.359000", "150012.359000", "150014.359000", "150016.359000", "150018.359000", "150020.359000", "150022.359000", "150024.359000", "150026.359000", "150028.359000", "150030.359000", "150032.359000", "150034.375000", "150036.359000", "150038.359000", "150040.359000", "150042.875000", "150044.375000", "150046.375000", "150048.359000", "150050.359000", "150052.359000", "150054.375000", "150056.359000", "150058.359000", "150100.359000", "150102.359000", "150104.359000", "150106.359000", "150108.359000", "150110.359000", "150112.359000", "150114.359000", "150116.359000", "150118.359000", "150120.359000", "150122.359000", "150124.359000", "150126.359000", "150128.359000", "150130.359000", "150132.359000", "150134.359000", "150136.359000", "150138.359000", "150140.359000", "150142.359000", "150144.359000", "150146.359000", "150148.375000", "150150.359000", "150152.875000", "150154.359000", "150156.359000", "150158.359000", "150200.359000", "150202.359000", "150204.359000", "150206.359000", "150208.359000", "150210.234000"],
      "InstanceNumber": [1, 2, 3, 4, 5, 6, 7, 8, 9, 10, 11, 12, 13, 14, 15, 16, 17, 18, 19, 20, 21, 22, 23, 24, 25, 26, 27, 28, 29, 30, 31, 32, 33, 34, 35, 36, 37, 38, 39, 40, 41, 42, 43, 44, 45, 46, 47, 48, 49, 50, 51, 52, 53, 54, 55, 56, 57, 58, 59, 60, 61, 62, 63, 64, 65, 66, 67, 68, 69, 70, 71, 72, 73, 74, 75, 76, 77, 78, 79, 80, 81, 82, 83, 84, 85, 86, 87, 88, 89, 90, 91, 92, 93, 94, 95, 96, 97, 98, 99, 100, 101, 102, 103, 104, 105, 106, 107, 108, 109, 110, 111, 112, 113, 114, 115, 116, 117, 118, 119, 120, 121, 122, 123, 124, 125, 126, 127, 128, 129, 130, 131, 132, 133, 134, 135, 136, 137, 138, 139, 140, 141, 142, 143, 144, 145, 146, 147, 148, 149, 150, 151, 152, 153, 154, 155, 156, 157, 158, 159, 160, 161, 162, 163, 164, 165, 166, 167, 168, 169, 170, 171, 172, 173, 174, 175, 176, 177, 178, 179, 180, 181, 182, 183, 184, 185, 186, 187, 188, 189, 190, 191, 192, 193, 194, 195, 196, 197, 198, 199, 200, 201, 202, 203, 204, 205, 206, 207, 208, 209, 210],
      "LargestImagePixelValue": [2106, 2024, 1996, 1967, 1974, 1971, 1947, 1971, 1965, 1966, 1974, 1984, 1966, 1977, 1969, 1996, 1969, 1964, 1975, 1994, 1988, 1978, 1967, 1964, 1978, 1976, 1980, 1973, 1965, 1970, 1964, 1976, 1961, 1976, 1969, 1951, 1984, 1977, 1968, 1975, 1971, 1984, 1969, 1977, 1954, 1968, 1980, 1972, 1976, 1985, 1962, 1992, 1972, 1980, 1982, 1971, 1984, 1974, 1980, 1990, 1988, 1983, 1995, 1980, 1980, 1977, 1996, 1986, 1988, 1975, 1993, 1974, 2045, 2019, 2046, 2031, 2028, 2012, 2017, 2018, 2044, 2039, 2042, 2032, 2029, 2025, 2024, 2041, 2038, 2027, 2015, 2039, 2014, 2027, 2030, 2034, 2047, 2026, 2038, 2017, 2036, 2024, 2031, 2032, 2034, 2044, 2033, 2041, 2028, 2038, 2037, 2020, 2034, 2026, 2057, 2050, 2038, 2035, 2038, 2052, 2222, 2051, 2049, 2036, 2050, 2041, 2038, 2052, 2049, 2033, 2052, 2059, 2063, 2041, 2049, 2065, 2033, 2046, 2041, 2051, 2052, 2061, 2048, 2056, 2084, 2037, 2042, 2044, 2058, 2058, 2061, 2055, 2048, 2063, 2062, 2068, 2063, 2064, 2067, 2063, 2051, 2068, 2064, 2045, 2042, 2065, 2077, 2080, 2051, 2051, 2036, 2057, 2047, 2043, 2053, 2067, 2045, 2054, 2055, 2052, 2054, 2042, 2043, 2048, 2037, 2048, 2049, 2045, 2035, 2050, 2026, 2077, 2066, 2045, 2048, 2048, 2058, 2044, 2040, 2033, 2024, 2018, 2016, 2028, 2039, 2018, 2034, 2044, 2041, 2050],
      "WindowCenter": [779.0, 776.0, 773.0, 772.0, 772.0, 772.0, 771.0, 771.0, 771.0, 771.0, 771.0, 771.0, 771.0, 770.0, 769.0, 770.0, 769.0, 770.0, 770.0, 770.0, 770.0, 771.0, 770.0, 769.0, 770.0, 769.0, 769.0, 769.0, 769.0, 769.0, 770.0, 770.0, 771.0, 771.0, 771.0, 770.0, 770.0, 770.0, 770.0, 770.0, 770.0, 770.0, 769.0, 770.0, 770.0, 771.0, 771.0, 771.0, 772.0, 771.0, 770.0, 769.0, 769.0, 771.0, 771.0, 770.0, 770.0, 770.0, 770.0, 770.0, 770.0, 771.0, 771.0, 769.0, 769.0, 769.0, 769.0, 770.0, 770.0, 772.0, 772.0, 771.0, 771.0, 771.0, 771.0, 771.0, 770.0, 770.0, 770.0, 771.0, 769.0, 769.0, 768.0, 768.0, 768.0, 768.0, 768.0, 769.0, 769.0, 769.0, 769.0, 770.0, 769.0, 769.0, 770.0, 772.0, 773.0, 772.0, 771.0, 770.0, 770.0, 769.0, 769.0, 770.0, 770.0, 769.0, 770.0, 769.0, 770.0, 771.0, 771.0, 771.0, 770.0, 770.0, 772.0, 773.0, 772.0, 771.0, 770.0, 768.0, 767.0, 766.0, 768.0, 769.0, 770.0, 771.0, 771.0, 771.0, 771.0, 772.0, 772.0, 772.0, 770.0, 771.0, 771.0, 771.0, 772.0, 772.0, 770.0, 771.0, 770.0, 770.0, 769.0, 769.0, 774.0, 771.0, 771.0, 771.0, 772.0, 773.0, 773.0, 773.0, 774.0, 775.0, 776.0, 774.0, 773.0, 773.0, 774.0, 774.0, 772.0, 771.0, 770.0, 769.0, 770.0, 770.0, 772.0, 773.0, 773.0, 773.0, 771.0, 770.0, 769.0, 768.0, 767.0, 767.0, 767.0, 769.0, 769.0, 772.0, 773.0, 773.0, 772.0, 772.0, 772.0, 771.0, 773.0, 774.0, 773.0, 771.0, 769.0, 769.0, 767.0, 764.0, 764.0, 768.0, 768.0, 769.0, 769.0, 768.0, 769.0, 771.0, 772.0, 772.0, 772.0, 773.0, 774.0, 776.0, 776.0, 774.0],
      "WindowWidth": [1666.0, 1656.0, 1649.0, 1646.0, 1646.0, 1644.0, 1643.0, 1644.0, 1644.0, 1643.0, 1643.0, 1643.0, 1642.0, 1641.0, 1639.0, 1641.0, 1638.0, 1640.0, 1641.0, 1640.0, 1641.0, 1642.0, 1640.0, 1639.0, 1640.0, 1639.0, 1639.0, 1639.0, 1637.0, 1639.0, 1640.0, 1640.0, 1642.0, 1642.0, 1642.0, 1640.0, 1641.0, 1641.0, 1640.0, 1640.0, 1640.0, 1640.0, 1639.0, 1639.0, 1639.0, 1642.0, 1644.0, 1644.0, 1644.0, 1644.0, 1639.0, 1638.0, 1639.0, 1642.0, 1642.0, 1641.0, 1640.0, 1641.0, 1640.0, 1641.0, 1641.0, 1644.0, 1642.0, 1638.0, 1637.0, 1638.0, 1639.0, 1640.0, 1642.0, 1646.0, 1644.0, 1642.0, 1643.0, 1643.0, 1644.0, 1643.0, 1639.0, 1640.0, 1641.0, 1641.0, 1638.0, 1637.0, 1636.0, 1635.0, 1636.0, 1636.0, 1636.0, 1638.0, 1639.0, 1636.0, 1637.0, 1640.0, 1637.0, 1637.0, 1640.0, 1646.0, 1648.0, 1645.0, 1644.0, 1640.0, 1639.0, 1638.0, 1639.0, 1640.0, 1640.0, 1638.0, 1640.0, 1639.0, 1641.0, 1644.0, 1644.0, 1642.0, 1642.0, 1641.0, 1646.0, 1648.0, 1645.0, 1643.0, 1640.0, 1635.0, 1633.0, 1630.0, 1634.0, 1638.0, 1641.0, 1643.0, 1642.0, 1643.0, 1642.0, 1645.0, 1646.0, 1644.0, 1641.0, 1643.0, 1641.0, 1643.0, 1645.0, 1646.0, 1641.0, 1642.0, 1640.0, 1641.0, 1637.0, 1637.0, 1651.0, 1642.0, 1643.0, 1642.0, 1646.0, 1647.0, 1647.0, 1647.0, 1650.0, 1653.0, 1655.0, 1651.0, 1646.0, 1647.0, 1649.0, 1650.0, 1644.0, 1643.0, 1640.0, 1638.0, 1639.0, 1639.0, 1644.0, 1648.0, 1649.0, 1648.0, 1643.0, 1640.0, 1636.0, 1634.0, 1633.0, 1633.0, 1633.0, 1637.0, 1638.0, 1644.0, 1648.0, 1647.0, 1646.0, 1645.0, 1645.0, 1644.0, 1648.0, 1650.0, 1646.0, 1643.0, 1638.0, 1637.0, 1633.0, 1626.0, 1625.0, 1634.0, 1633.0, 1637.0, 1637.0, 1635.0, 1637.0, 1642.0, 1646.0, 1645.0, 1644.0, 1646.0, 1650.0, 1655.0, 1655.0, 1650.0]
    },
    "slices": {}
  }
}