{
  "AcquisitionMatrixPE": 64,
  "AcquisitionNumber": 1,
  "AcquisitionTime": "14:17:57.082500",
  "BandwidthPerPixelPhaseEncode": 30.637,
  "BaseResolution": 64,
  "BidsGuess": [
    "func",
    "_acq-epfid2_dir-AP_run-4_bold"
],
  "CoilCombinationMethod": "Sum of Squares",
  "CoilString": "C:HEA;HEP",
  "ConversionSoftware": "dcm2niix",
  "ConversionSoftwareVersion": "v1.0.20240202",
  "DerivedVendorReportedEchoSpacing": 0.000510004,
  "DeviceSerialNumber": "35119",
  "DwellTime": 3.5e-06,
  "EchoTime": 0.03,
  "EffectiveEchoSpacing": 0.000510004,
  "FlipAngle": 78,
  "HeudiconvVersion": "1.1.6",
  "ImageComments": "V",
  "ImageOrientationPatientDICOM": [0.999615, 0.009818, 0.025954, 0, 0.93532, -0.353803],
  "ImageOrientationText": "Tra>Cor(-20.7)>Sag(1.6)",
  "ImageType": [
    "ORIGINAL",
    "PRIMARY",
    "M",
    "ND",
    "MOSAIC"
],
  "ImagingFrequency": 123.251774,
  "InPlanePhaseEncodingDirectionDICOM": "COL",
  "InstitutionAddress": "Chaucer Road  15,Cambridge,UK,GB,CB2 2EF",
  "InstitutionName": "MRC-CBU",
  "MRAcquisitionType": "2D",
  "MagneticFieldStrength": 3,
  "Manufacturer": "Siemens",
  "ManufacturersModelName": "TrioTim",
  "MatrixCoilMode": "SENSE",
  "Modality": "MR",
  "NonlinearGradientCorrection": false,
  "PartialFourier": 1,
  "PatientPosition": "HFS",
  "PercentPhaseFOV": 100,
  "PercentSampling": 100,
  "PhaseEncodingDirection": "j-",
  "PhaseEncodingSteps": 64,
  "PhaseResolution": 1,
  "PixelBandwidth": 2230,
  "ProcedureStepDescription": "CBU^Neuroimaging",
  "ProtocolName": "CBU_DWEPI_BOLD210",
  "PulseSequenceDetails": "%SiemensSeq%\\ep2d_bold",
  "ReceiveCoilName": "HeadMatrix",
  "ReconMatrixPE": 64,
  "RepetitionTime": 2,
  "SAR": 0.141173,
  "ScanOptions": "FS",
  "ScanningSequence": "EP",
  "SequenceName": "*epfid2d1_64",
  "SequenceVariant": "SK",
  "SeriesDescription": "CBU_DWEPI_BOLD210",
  "SeriesNumber": 4,
  "ShimSetting": [-7807, -8728, -2069, 670, 276, 297, -261, 4],
  "SliceThickness": 3,
  "SliceTiming": [0, 1.035, 0.0625, 1.095, 0.1225, 1.1575, 0.1825, 1.2175, 0.245, 1.2775, 0.305, 1.34, 0.365, 1.4, 0.4275, 1.46, 0.4875, 1.5225, 0.5475, 1.5825, 0.61, 1.6425, 0.67, 1.705, 0.73, 1.765, 0.7925, 1.825, 0.8525, 1.8875, 0.9125, 1.9475, 0.975],
  "SoftwareVersions": "syngo MR B15",
  "SpacingBetweenSlices": 3.9,
  "StationName": "MRC35119",
  "TaskName": "faceprocessing",
  "TotalReadoutTime": 0.0321303,
  "TxRefAmp": 310.592,
  "dcmmeta_affine": [
    [-2.998845100402832, 0.0, 0.10822083801031113, 98.60254669189453],
    [-0.029454000294208527, 2.805959939956665, -1.3793004751205444, -57.23212432861328],
    [0.07786200195550919, 1.0614089965820312, 3.64634370803833, -71.4105224609375],
    [0.0, 0.0, 0.0, 1.0]
],
  "dcmmeta_reorient_transform": [
    [0.0, -1.0, 0.0, 63.0],
    [1.0, 0.0, 0.0, 0.0],
    [0.0, 0.0, 1.0, 0.0],
    [0.0, 0.0, 0.0, 1.0]
],
  "dcmmeta_shape": [64, 64, 33, 210],
  "dcmmeta_slice_dim": 2,
  "dcmmeta_version": 0.6,
  "global": {
    "const": {
      "AcquisitionMatrix": [64, 0, 0, 64],
      "AngioFlag": "N",
      "BitsAllocated": 16,
      "BitsStored": 12,
      "Columns": 384,
      "EchoNumbers": 1,
      "EchoTime": 30.0,
      "EchoTrainLength": 1,
      "FlipAngle": 78.0,
      "HighBit": 11,
      "ImageOrientationPatient": [0.999615, 0.009818, 0.025954, 0.0, 0.93532, -0.353803],
      "ImagePositionPatient": [-578.41775, -573.209596, 152.825764],
      "ImageType": [
        "ORIGINAL",
        "PRIMARY",
        "M",
        "ND",
        "MOSAIC"
],
      "ImagedNucleus": "1H",
      "ImagingFrequency": 123.251774,
      "InPlanePhaseEncodingDirection": "COL",
      "MRAcquisitionType": "2D",
      "MagneticFieldStrength": 3.0,
      "Manufacturer": "SIEMENS",
      "ManufacturerModelName": "TrioTim",
      "Modality": "MR",
      "NumberOfAverages": 1.0,
      "NumberOfPhaseEncodingSteps": 64,
      "PercentPhaseFieldOfView": 100.0,
      "PercentSampling": 100.0,
      "PerformedProcedureStepStartTime": "135928.531000",
      "PhotometricInterpretation": "MONOCHROME2",
      "PixelAspectRatio": [1, 1],
      "PixelBandwidth": 2230.0,
      "PixelRepresentation": 0,
      "PixelSpacing": [3.0, 3.0],
      "ProtocolName": "CBU_DWEPI_BOLD210",
      "RepetitionTime": 2000.0,
      "Rows": 384,
      "SAR": 0.141173,
      "SamplesPerPixel": 1,
      "ScanOptions": "FS",
      "ScanningSequence": "EP",
      "SequenceName": "*epfid2d1_64",
      "SequenceVariant": "SK",
      "SeriesDescription": "CBU_DWEPI_BOLD210",
      "SeriesNumber": 4,
      "SeriesTime": "141800.484000",
      "SliceLocation": -43.788955,
      "SliceThickness": 3.0,
      "SmallestImagePixelValue": 0,
      "SoftwareVersions": "syngo MR B15",
      "SpacingBetweenSlices": 3.9,
      "SpecificCharacterSet": "ISO_IR 100",
      "StudyID": "1",
      "StudyTime": "135928.468000",
      "TransmitCoilName": "Body",
      "VariableFlipAngleFlag": "N",
      "WindowCenterWidthExplanation": "Algo1",
      "dBdt": 0.0},
    "slices": {}
  },
  "time": {
    "samples": {
      "AcquisitionNumber": [1, 2, 3, 4, 5, 6, 7, 8, 9, 10, 11, 12, 13, 14, 15, 16, 17, 18, 19, 20, 21, 22, 23, 24, 25, 26, 27, 28, 29, 30, 31, 32, 33, 34, 35, 36, 37, 38, 39, 40, 41, 42, 43, 44, 45, 46, 47, 48, 49, 50, 51, 52, 53, 54, 55, 56, 57, 58, 59, 60, 61, 62, 63, 64, 65, 66, 67, 68, 69, 70, 71, 72, 73, 74, 75, 76, 77, 78, 79, 80, 81, 82, 83, 84, 85, 86, 87, 88, 89, 90, 91, 92, 93, 94, 95, 96, 97, 98, 99, 100, 101, 102, 103, 104, 105, 106, 107, 108, 109, 110, 111, 112, 113, 114, 115, 116, 117, 118, 119, 120, 121, 122, 123, 124, 125, 126, 127, 128, 129, 130, 131, 132, 133, 134, 135, 136, 137, 138, 139, 140, 141, 142, 143, 144, 145, 146, 147, 148, 149, 150, 151, 152, 153, 154, 155, 156, 157, 158, 159, 160, 161, 162, 163, 164, 165, 166, 167, 168, 169, 170, 171, 172, 173, 174, 175, 176, 177, 178, 179, 180, 181, 182, 183, 184, 185, 186, 187, 188, 189, 190, 191, 192, 193, 194, 195, 196, 197, 198, 199, 200, 201, 202, 203, 204, 205, 206, 207, 208, 209, 210],
      "AcquisitionTime": ["141757.082500", "141759.090000", "141801.100000", "141803.107500", "141805.115000", "141807.122500", "141809.130000", "141811.140000", "141813.147500", "141815.155000", "141817.162500", "141819.172500", "141821.180000", "141823.187500", "141825.195000", "141827.202500", "141829.212500", "141831.220000", "141833.227500", "141835.235000", "141837.242500", "141839.252500", "141841.260000", "141843.267500", "141845.275000", "141847.285000", "141849.292500", "141851.300000", "141853.307500", "141855.315000", "141857.325000", "141859.332500", "141901.340000", "141903.347500", "141905.355000", "141907.365000", "141909.372500", "141911.380000", "141913.387500", "141915.397500", "141917.405000", "141919.412500", "141921.420000", "141923.427500", "141925.437500", "141927.445000", "141929.452500", "141931.460000", "141933.467500", "141935.477500", "141937.485000", "141939.492500", "141941.500000", "141943.507500", "141945.517500", "141947.525000", "141949.532500", "141951.540000", "141953.550000", "141955.557500", "141957.565000", "141959.572500", "142001.580000", "142003.590000", "142005.597500", "142007.605000", "142009.612500", "142011.620000", "142013.630000", "142015.637500", "142017.645000", "142019.652500", "142021.662500", "142023.670000", "142025.677500", "142027.685000", "142029.692500", "142031.702500", "142033.710000", "142035.717500", "142037.725000", "142039.732500", "142041.742500", "142043.750000", "142045.757500", "142047.765000", "142049.775000", "142051.782500", "142053.790000", "142055.797500", "142057.805000", "142059.815000", "142101.822500", "142103.830000", "142105.837500", "142107.845000", "142109.855000", "142111.862500", "142113.870000", "142115.877500", "142117.885000", "142119.895000", "142121.902500", "142123.910000", "142125.917500", "142127.927500", "142129.935000", "142131.942500", "142133.950000", "142135.957500", "142137.967500", "142139.975000", "142141.982500", "142143.990000", "142145.997500", "142148.007500", "142150.015000", "142152.022500", "142154.030000", "142156.040000", "142158.047500", "142200.055000", "142202.062500", "142204.070000", "142206.080000", "142208.087500", "142210.095000", "142212.102500", "142214.110000", "142216.120000", "142218.127500", "142220.135000", "142222.142500", "142224.152500", "142226.160000", "142228.167500", "142230.175000", "142232.182500", "142234.192500", "142236.200000", "142238.207500", "142240.215000", "142242.222500", "142244.232500", "142246.240000", "142248.247500", "142250.255000", "142252.262500", "142254.272500", "142256.280000", "142258.287500", "142300.295000", "142302.305000", "142304.312500", "142306.320000", "142308.327500", "142310.335000", "142312.345000", "142314.352500", "142316.360000", "142318.367500", "142320.375000", "142322.385000", "142324.392500", "142326.400000", "142328.407500", "142330.417500", "142332.425000", "142334.432500", "142336.440000", "142338.447500", "142340.457500", "142342.465000", "142344.472500", "142346.480000", "142348.487500", "142350.497500", "142352.505000", "142354.512500", "142356.520000", "142358.530000", "142400.537500", "142402.545000", "142404.552500", "142406.560000", "142408.570000", "142410.577500", "142412.585000", "142414.592500", "142416.600000", "142418.610000", "142420.617500", "142422.625000", "142424.632500", "142426.640000", "142428.650000", "142430.657500", "142432.665000", "142434.672500", "142436.682500", "142438.690000", "142440.697500", "142442.705000", "142444.712500", "142446.722500", "142448.730000", "142450.737500", "142452.745000", "142454.752500", "142456.762500"],
      "ContentTime": ["141800.484000", "141802.468000", "141803.968000", "141805.968000", "141808.484000", "141810.468000", "141812.468000", "141814.468000", "141816.468000", "141818.468000", "141819.968000", "141822.484000", "141824.484000", "141825.984000", "141828.484000", "141829.968000", "141831.984000", "141833.968000", "141836.484000", "141838.468000", "141839.968000", "141842.484000", "141844.468000", "141846.468000", "141847.968000", "141850.468000", "141852.484000", "141853.984000", "141856.468000", "141858.468000", "141859.984000", "141901.968000", "141904.468000", "141905.968000", "141907.984000", "141910.484000", "141911.968000", "141913.968000", "141916.468000", "141918.468000", "141920.468000", "141922.468000", "141923.968000", "141926.468000", "141928.468000", "141930.468000", "141932.468000", "141934.484000", "141935.984000", "141937.968000", "141940.468000", "141942.468000", "141944.468000", "141946.468000", "141948.468000", "141950.468000", "141951.968000", "141954.468000", "141955.984000", "141957.968000", "142000.468000", "142002.468000", "142004.468000", "142005.968000", "142008.468000", "142009.968000", "142011.968000", "142014.468000", "142015.968000", "142018.468000", "142020.468000", "142022.468000", "142023.968000", "142025.968000", "142028.468000", "142030.468000", "142031.968000", "142034.484000", "142036.468000", "142037.984000", "142039.968000", "142042.468000", "142043.968000", "142045.968000", "142048.468000", "142050.468000", "142051.968000", "142054.468000", "142055.968000", "142057.968000", "142059.968000", "142101.968000", "142103.968000", "142105.968000", "142107.968000", "142109.968000", "142111.968000", "142113.968000", "142115.968000", "142117.968000", "142119.984000", "142121.968000", "142123.968000", "142125.968000", "142127.968000", "142129.968000", "142131.968000", "142133.984000", "142135.968000", "142138.468000", "142139.968000", "142141.968000", "142143.968000", "142145.968000", "142147.984000", "142149.968000", "142151.968000", "142153.968000", "142155.968000", "142157.968000", "142159.968000", "142201.984000", "142203.968000", "142206.468000", "142208.468000", "142210.468000", "142211.968000", "142213.968000", "142215.968000", "142217.968000", "142220.468000", "142221.968000", "142223.968000", "142225.968000", "142228.468000", "142229.984000", "142232.468000", "142233.968000", "142235.968000", "142237.968000", "142239.968000", "142242.468000", "142243.984000", "142245.968000", "142248.468000", "142249.968000", "142251.968000", "142253.968000", "142255.968000", "142257.984000", "142259.968000", "142302.468000", "142303.968000", "142305.968000", "142307.968000", "142309.968000", "142311.968000", "142313.968000", "142316.468000", "142317.968000", "142319.968000", "142321.968000", "142323.968000", "142325.984000", "142327.968000", "142330.468000", "142331.968000", "142333.968000", "142335.968000", "142337.968000", "142339.968000", "142342.468000", "142343.968000", "142346.468000", "142347.984000", "142349.968000", "142352.468000", "142353.968000", "142355.968000", "142358.484000", "142359.968000", "142401.968000", "142403.968000", "142405.968000", "142407.968000", "142409.968000", "142412.468000", "142413.968000", "142415.968000", "142417.968000", "142420.468000", "142421.968000", "142423.968000", "142426.484000", "142427.968000", "142429.968000", "142431.968000", "142434.468000", "142435.968000", "142437.968000", "142439.968000", "142442.468000", "142443.968000", "142446.468000", "142447.968000", "142449.968000", "142451.968000", "142453.968000", "142455.968000", "142457.953000"],
      "InstanceCreationTime": ["141800.484000", "141802.468000", "141803.968000", "141805.968000", "141808.484000", "141810.468000", "141812.468000", "141814.468000", "141816.468000", "141818.468000", "141819.968000", "141822.484000", "141824.484000", "141825.984000", "141828.484000", "141829.968000", "141831.984000", "141833.968000", "141836.484000", "141838.468000", "141839.968000", "141842.484000", "141844.468000", "141846.468000", "141847.968000", "141850.468000", "141852.484000", "141853.984000", "141856.468000", "141858.468000", "141859.984000", "141901.968000", "141904.468000", "141905.968000", "141907.984000", "141910.484000", "141911.968000", "141913.968000", "141916.468000", "141918.468000", "141920.468000", "141922.468000", "141923.968000", "141926.468000", "141928.468000", "141930.468000", "141932.468000", "141934.484000", "141935.984000", "141937.968000", "141940.468000", "141942.468000", "141944.468000", "141946.468000", "141948.468000", "141950.468000", "141951.968000", "141954.468000", "141955.984000", "141957.968000", "142000.468000", "142002.468000", "142004.468000", "142005.968000", "142008.468000", "142009.968000", "142011.968000", "142014.468000", "142015.968000", "142018.468000", "142020.468000", "142022.468000", "142023.968000", "142025.968000", "142028.468000", "142030.468000", "142031.968000", "142034.484000", "142036.468000", "142037.984000", "142039.968000", "142042.468000", "142043.968000", "142045.968000", "142048.468000", "142050.468000", "142051.968000", "142054.468000", "142055.968000", "142057.968000", "142059.968000", "142101.968000", "142103.968000", "142105.968000", "142107.968000", "142109.968000", "142111.968000", "142113.968000", "142115.968000", "142117.968000", "142119.984000", "142121.968000", "142123.968000", "142125.968000", "142127.968000", "142129.968000", "142131.968000", "142133.984000", "142135.968000", "142138.468000", "142139.968000", "142141.968000", "142143.968000", "142145.968000", "142147.984000", "142149.968000", "142151.968000", "142153.968000", "142155.968000", "142157.968000", "142159.968000", "142201.984000", "142203.968000", "142206.468000", "142208.468000", "142210.468000", "142211.968000", "142213.968000", "142215.968000", "142217.968000", "142220.468000", "142221.968000", "142223.968000", "142225.968000", "142228.468000", "142229.984000", "142232.468000", "142233.968000", "142235.968000", "142237.968000", "142239.968000", "142242.468000", "142243.984000", "142245.968000", "142248.468000", "142249.968000", "142251.968000", "142253.968000", "142255.968000", "142257.984000", "142259.968000", "142302.468000", "142303.968000", "142305.968000", "142307.968000", "142309.968000", "142311.968000", "142313.968000", "142316.468000", "142317.968000", "142319.968000", "142321.968000", "142323.968000", "142325.984000", "142327.968000", "142330.468000", "142331.968000", "142333.968000", "142335.968000", "142337.968000", "142339.968000", "142342.468000", "142343.968000", "142346.468000", "142347.984000", "142349.968000", "142352.468000", "142353.968000", "142355.968000", "142358.484000", "142359.968000", "142401.968000", "142403.968000", "142405.968000", "142407.968000", "142409.968000", "142412.468000", "142413.968000", "142415.968000", "142417.968000", "142420.468000", "142421.968000", "142423.968000", "142426.484000", "142427.968000", "142429.968000", "142431.968000", "142434.468000", "142435.968000", "142437.968000", "142439.968000", "142442.468000", "142443.968000", "142446.468000", "142447.968000", "142449.968000", "142451.968000", "142453.968000", "142455.968000", "142457.953000"],
      "InstanceNumber": [1, 2, 3, 4, 5, 6, 7, 8, 9, 10, 11, 12, 13, 14, 15, 16, 17, 18, 19, 20, 21, 22, 23, 24, 25, 26, 27, 28, 29, 30, 31, 32, 33, 34, 35, 36, 37, 38, 39, 40, 41, 42, 43, 44, 45, 46, 47, 48, 49, 50, 51, 52, 53, 54, 55, 56, 57, 58, 59, 60, 61, 62, 63, 64, 65, 66, 67, 68, 69, 70, 71, 72, 73, 74, 75, 76, 77, 78, 79, 80, 81, 82, 83, 84, 85, 86, 87, 88, 89, 90, 91, 92, 93, 94, 95, 96, 97, 98, 99, 100, 101, 102, 103, 104, 105, 106, 107, 108, 109, 110, 111, 112, 113, 114, 115, 116, 117, 118, 119, 120, 121, 122, 123, 124, 125, 126, 127, 128, 129, 130, 131, 132, 133, 134, 135, 136, 137, 138, 139, 140, 141, 142, 143, 144, 145, 146, 147, 148, 149, 150, 151, 152, 153, 154, 155, 156, 157, 158, 159, 160, 161, 162, 163, 164, 165, 166, 167, 168, 169, 170, 171, 172, 173, 174, 175, 176, 177, 178, 179, 180, 181, 182, 183, 184, 185, 186, 187, 188, 189, 190, 191, 192, 193, 194, 195, 196, 197, 198, 199, 200, 201, 202, 203, 204, 205, 206, 207, 208, 209, 210],
      "LargestImagePixelValue": [2164, 2048, 2025, 2033, 2025, 2013, 2023, 2029, 2029, 2008, 2017, 2020, 2010, 2015, 2022, 2011, 2014, 2030, 2013, 1998, 2022, 2011, 1999, 2004, 2016, 2018, 2017, 2017, 2016, 2019, 2031, 2005, 2016, 2000, 2028, 2011, 2029, 2006, 2003, 2024, 2013, 2021, 2033, 2033, 1999, 2021, 2023, 2011, 2019, 2040, 2013, 2041, 2018, 2014, 2013, 2012, 2015, 2004, 2020, 2033, 2015, 2021, 2022, 2005, 2021, 2013, 2023, 2028, 2028, 2044, 2048, 2031, 2045, 2003, 2001, 2015, 2021, 2012, 2019, 2017, 2000, 2014, 1989, 2008, 2009, 2000, 2021, 2019, 2008, 2017, 2015, 2003, 2018, 2006, 2020, 2000, 2010, 2013, 2008, 2007, 2006, 2011, 2014, 2008, 2020, 2025, 2012, 2027, 2008, 2019, 2004, 2022, 2027, 2044, 2023, 2013, 2030, 2019, 2000, 2026, 2018, 2036, 2005, 2011, 1994, 2002, 1996, 2009, 2020, 2011, 1997, 2002, 2028, 2003, 2006, 1999, 2001, 2005, 2019, 1996, 2025, 2014, 2010, 2025, 2004, 1998, 2028, 2009, 2019, 2075, 2021, 2005, 2003, 1980, 1999, 2009, 2013, 2020, 2012, 2054, 2013, 2010, 1999, 1986, 1969, 1987, 1974, 1985, 1982, 2003, 1975, 2008, 2002, 1978, 1976, 1999, 1985, 1998, 2001, 1983, 1989, 1978, 1998, 2003, 1989, 1986, 1993, 1992, 2003, 2015, 1997, 1979, 1987, 1997, 2001, 1976, 1981, 1991, 1995, 1980, 1981, 1977, 1997, 1996, 1981, 1999, 1986, 2003, 1998, 2004],
      "WindowCenter": [770.0, 763.0, 760.0, 758.0, 756.0, 754.0, 753.0, 753.0, 754.0, 756.0, 757.0, 758.0, 759.0, 761.0, 761.0, 760.0, 761.0, 761.0, 762.0, 761.0, 761.0, 762.0, 762.0, 762.0, 762.0, 761.0, 760.0, 760.0, 759.0, 761.0, 762.0, 763.0, 763.0, 761.0, 761.0, 762.0, 762.0, 761.0, 760.0, 760.0, 760.0, 761.0, 760.0, 760.0, 760.0, 760.0, 760.0, 760.0, 759.0, 760.0, 760.0, 760.0, 760.0, 760.0, 760.0, 760.0, 761.0, 761.0, 761.0, 761.0, 761.0, 760.0, 760.0, 760.0, 761.0, 761.0, 761.0, 760.0, 759.0, 760.0, 760.0, 762.0, 762.0, 766.0, 763.0, 761.0, 760.0, 760.0, 762.0, 763.0, 763.0, 763.0, 762.0, 763.0, 763.0, 763.0, 762.0, 762.0, 761.0, 761.0, 761.0, 761.0, 761.0, 761.0, 761.0, 761.0, 761.0, 761.0, 761.0, 761.0, 761.0, 761.0, 761.0, 761.0, 761.0, 761.0, 761.0, 761.0, 763.0, 763.0, 762.0, 761.0, 761.0, 761.0, 762.0, 762.0, 762.0, 763.0, 764.0, 763.0, 762.0, 762.0, 762.0, 763.0, 763.0, 762.0, 762.0, 762.0, 762.0, 762.0, 762.0, 762.0, 762.0, 763.0, 763.0, 762.0, 762.0, 762.0, 762.0, 763.0, 763.0, 762.0, 762.0, 761.0, 762.0, 763.0, 763.0, 762.0, 763.0, 764.0, 763.0, 761.0, 761.0, 760.0, 759.0, 759.0, 759.0, 760.0, 762.0, 762.0, 761.0, 762.0, 763.0, 763.0, 763.0, 763.0, 763.0, 762.0, 762.0, 763.0, 763.0, 763.0, 763.0, 764.0, 765.0, 766.0, 765.0, 764.0, 764.0, 764.0, 764.0, 764.0, 764.0, 764.0, 763.0, 762.0, 762.0, 763.0, 764.0, 763.0, 764.0, 765.0, 764.0, 763.0, 762.0, 763.0, 763.0, 764.0, 764.0, 763.0, 763.0, 764.0, 764.0, 763.0, 763.0, 763.0, 762.0, 762.0, 763.0, 763.0],
      "WindowWidth": [1641.0, 1622.0, 1615.0, 1610.0, 1606.0, 1600.0, 1597.0, 1597.0, 1600.0, 1605.0, 1607.0, 1609.0, 1613.0, 1616.0, 1616.0, 1615.0, 1617.0, 1618.0, 1619.0, 1617.0, 1618.0, 1619.0, 1620.0, 1620.0, 1619.0, 1618.0, 1615.0, 1613.0, 1612.0, 1616.0, 1620.0, 1621.0, 1621.0, 1617.0, 1617.0, 1619.0, 1619.0, 1616.0, 1614.0, 1613.0, 1615.0, 1617.0, 1615.0, 1615.0, 1615.0, 1616.0, 1615.0, 1614.0, 1613.0, 1615.0, 1614.0, 1614.0, 1615.0, 1614.0, 1615.0, 1615.0, 1617.0, 1617.0, 1617.0, 1617.0, 1617.0, 1615.0, 1615.0, 1616.0, 1617.0, 1617.0, 1616.0, 1614.0, 1612.0, 1614.0, 1616.0, 1619.0, 1620.0, 1629.0, 1622.0, 1617.0, 1614.0, 1616.0, 1620.0, 1623.0, 1623.0, 1622.0, 1620.0, 1621.0, 1622.0, 1621.0, 1619.0, 1619.0, 1617.0, 1616.0, 1617.0, 1617.0, 1617.0, 1617.0, 1617.0, 1617.0, 1618.0, 1617.0, 1617.0, 1618.0, 1617.0, 1616.0, 1617.0, 1617.0, 1617.0, 1617.0, 1616.0, 1618.0, 1622.0, 1622.0, 1619.0, 1617.0, 1616.0, 1617.0, 1619.0, 1618.0, 1619.0, 1622.0, 1623.0, 1622.0, 1619.0, 1619.0, 1619.0, 1622.0, 1622.0, 1620.0, 1620.0, 1619.0, 1620.0, 1621.0, 1621.0, 1620.0, 1621.0, 1622.0, 1623.0, 1621.0, 1619.0, 1620.0, 1621.0, 1621.0, 1622.0, 1621.0, 1619.0, 1618.0, 1620.0, 1622.0, 1621.0, 1620.0, 1621.0, 1626.0, 1623.0, 1618.0, 1618.0, 1614.0, 1612.0, 1612.0, 1612.0, 1614.0, 1618.0, 1619.0, 1617.0, 1621.0, 1621.0, 1622.0, 1621.0, 1623.0, 1621.0, 1620.0, 1620.0, 1622.0, 1622.0, 1621.0, 1623.0, 1625.0, 1627.0, 1629.0, 1627.0, 1626.0, 1624.0, 1624.0, 1624.0, 1625.0, 1625.0, 1623.0, 1622.0, 1620.0, 1620.0, 1622.0, 1623.0, 1623.0, 1625.0, 1627.0, 1626.0, 1622.0, 1621.0, 1622.0, 1622.0, 1625.0, 1624.0, 1623.0, 1623.0, 1624.0, 1625.0, 1623.0, 1622.0, 1621.0, 1620.0, 1620.0, 1621.0, 1623.0]
    },
    "slices": {}
  }
}