{
  "AcquisitionMatrixPE": 64,
  "AcquisitionNumber": 1,
  "AcquisitionTime": "14:47:49.462500",
  "BandwidthPerPixelPhaseEncode": 30.637,
  "BaseResolution": 64,
  "BidsGuess": [
    "func",
    "_acq-epfid2_dir-AP_run-8_bold"
],
  "CoilCombinationMethod": "Sum of Squares",
  "CoilString": "C:HEA;HEP",
  "ConversionSoftware": "dcm2niix",
  "ConversionSoftwareVersion": "v1.0.20240202",
  "DerivedVendorReportedEchoSpacing": 0.000510004,
  "DeviceSerialNumber": "35119",
  "DwellTime": 3.5e-06,
  "EchoTime": 0.03,
  "EffectiveEchoSpacing": 0.000510004,
  "FlipAngle": 78,
  "HeudiconvVersion": "1.1.6",
  "ImageComments": "V",
  "ImageOrientationPatientDICOM": [0.999615, 0.009818, 0.025954, 0, 0.93532, -0.353803],
  "ImageOrientationText": "Tra>Cor(-20.7)>Sag(1.6)",
  "ImageType": [
    "ORIGINAL",
    "PRIMARY",
    "M",
    "ND",
    "MOSAIC"
],
  "ImagingFrequency": 123.251774,
  "InPlanePhaseEncodingDirectionDICOM": "COL",
  "InstitutionAddress": "Chaucer Road  15,Cambridge,UK,GB,CB2 2EF",
  "InstitutionName": "MRC-CBU",
  "MRAcquisitionType": "2D",
  "MagneticFieldStrength": 3,
  "Manufacturer": "Siemens",
  "ManufacturersModelName": "TrioTim",
  "MatrixCoilMode": "SENSE",
  "Modality": "MR",
  "NonlinearGradientCorrection": false,
  "PartialFourier": 1,
  "PatientPosition": "HFS",
  "PercentPhaseFOV": 100,
  "PercentSampling": 100,
  "PhaseEncodingDirection": "j-",
  "PhaseEncodingSteps": 64,
  "PhaseResolution": 1,
  "PixelBandwidth": 2230,
  "ProcedureStepDescription": "CBU^Neuroimaging",
  "ProtocolName": "CBU_DWEPI_BOLD210",
  "PulseSequenceDetails": "%SiemensSeq%\\ep2d_bold",
  "ReceiveCoilName": "HeadMatrix",
  "ReconMatrixPE": 64,
  "RepetitionTime": 2,
  "SAR": 0.141173,
  "ScanOptions": "FS",
  "ScanningSequence": "EP",
  "SequenceName": "*epfid2d1_64",
  "SequenceVariant": "SK",
  "SeriesDescription": "CBU_DWEPI_BOLD210",
  "SeriesNumber": 8,
  "ShimSetting": [-7807, -8728, -2069, 670, 276, 297, -261, 4],
  "SliceThickness": 3,
  "SliceTiming": [0, 1.035, 0.0625, 1.095, 0.1225, 1.1575, 0.1825, 1.2175, 0.245, 1.2775, 0.305, 1.34, 0.365, 1.4, 0.4275, 1.46, 0.4875, 1.5225, 0.5475, 1.5825, 0.61, 1.6425, 0.67, 1.705, 0.73, 1.765, 0.7925, 1.825, 0.8525, 1.8875, 0.9125, 1.9475, 0.975],
  "SoftwareVersions": "syngo MR B15",
  "SpacingBetweenSlices": 3.9,
  "StationName": "MRC35119",
  "TaskName": "faceprocessing",
  "TotalReadoutTime": 0.0321303,
  "TxRefAmp": 310.592,
  "dcmmeta_affine": [
    [-2.998845100402832, 0.0, 0.10822083801031113, 98.60254669189453],
    [-0.029454000294208527, 2.805959939956665, -1.3793004751205444, -57.23212432861328],
    [0.07786200195550919, 1.0614089965820312, 3.64634370803833, -71.4105224609375],
    [0.0, 0.0, 0.0, 1.0]
],
  "dcmmeta_reorient_transform": [
    [0.0, -1.0, 0.0, 63.0],
    [1.0, 0.0, 0.0, 0.0],
    [0.0, 0.0, 1.0, 0.0],
    [0.0, 0.0, 0.0, 1.0]
],
  "dcmmeta_shape": [64, 64, 33, 210],
  "dcmmeta_slice_dim": 2,
  "dcmmeta_version": 0.6,
  "global": {
    "const": {
      "AcquisitionMatrix": [64, 0, 0, 64],
      "AngioFlag": "N",
      "BitsAllocated": 16,
      "BitsStored": 12,
      "Columns": 384,
      "EchoNumbers": 1,
      "EchoTime": 30.0,
      "EchoTrainLength": 1,
      "FlipAngle": 78.0,
      "HighBit": 11,
      "ImageOrientationPatient": [0.999615, 0.009818, 0.025954, 0.0, 0.93532, -0.353803],
      "ImagePositionPatient": [-578.41775, -573.209596, 152.825764],
      "ImageType": [
        "ORIGINAL",
        "PRIMARY",
        "M",
        "ND",
        "MOSAIC"
],
      "ImagedNucleus": "1H",
      "ImagingFrequency": 123.251774,
      "InPlanePhaseEncodingDirection": "COL",
      "MRAcquisitionType": "2D",
      "MagneticFieldStrength": 3.0,
      "Manufacturer": "SIEMENS",
      "ManufacturerModelName": "TrioTim",
      "Modality": "MR",
      "NumberOfAverages": 1.0,
      "NumberOfPhaseEncodingSteps": 64,
      "PercentPhaseFieldOfView": 100.0,
      "PercentSampling": 100.0,
      "PerformedProcedureStepStartTime": "135928.531000",
      "PhotometricInterpretation": "MONOCHROME2",
      "PixelAspectRatio": [1, 1],
      "PixelBandwidth": 2230.0,
      "PixelRepresentation": 0,
      "PixelSpacing": [3.0, 3.0],
      "ProtocolName": "CBU_DWEPI_BOLD210",
      "RepetitionTime": 2000.0,
      "Rows": 384,
      "SAR": 0.141173,
      "SamplesPerPixel": 1,
      "ScanOptions": "FS",
      "ScanningSequence": "EP",
      "SequenceName": "*epfid2d1_64",
      "SequenceVariant": "SK",
      "SeriesDescription": "CBU_DWEPI_BOLD210",
      "SeriesNumber": 8,
      "SeriesTime": "144753.109000",
      "SliceLocation": -43.788955,
      "SliceThickness": 3.0,
      "SmallestImagePixelValue": 0,
      "SoftwareVersions": "syngo MR B15",
      "SpacingBetweenSlices": 3.9,
      "SpecificCharacterSet": "ISO_IR 100",
      "StudyID": "1",
      "StudyTime": "135928.468000",
      "TransmitCoilName": "Body",
      "VariableFlipAngleFlag": "N",
      "WindowCenterWidthExplanation": "Algo1",
      "dBdt": 0.0},
    "slices": {}
  },
  "time": {
    "samples": {
      "AcquisitionNumber": [1, 2, 3, 4, 5, 6, 7, 8, 9, 10, 11, 12, 13, 14, 15, 16, 17, 18, 19, 20, 21, 22, 23, 24, 25, 26, 27, 28, 29, 30, 31, 32, 33, 34, 35, 36, 37, 38, 39, 40, 41, 42, 43, 44, 45, 46, 47, 48, 49, 50, 51, 52, 53, 54, 55, 56, 57, 58, 59, 60, 61, 62, 63, 64, 65, 66, 67, 68, 69, 70, 71, 72, 73, 74, 75, 76, 77, 78, 79, 80, 81, 82, 83, 84, 85, 86, 87, 88, 89, 90, 91, 92, 93, 94, 95, 96, 97, 98, 99, 100, 101, 102, 103, 104, 105, 106, 107, 108, 109, 110, 111, 112, 113, 114, 115, 116, 117, 118, 119, 120, 121, 122, 123, 124, 125, 126, 127, 128, 129, 130, 131, 132, 133, 134, 135, 136, 137, 138, 139, 140, 141, 142, 143, 144, 145, 146, 147, 148, 149, 150, 151, 152, 153, 154, 155, 156, 157, 158, 159, 160, 161, 162, 163, 164, 165, 166, 167, 168, 169, 170, 171, 172, 173, 174, 175, 176, 177, 178, 179, 180, 181, 182, 183, 184, 185, 186, 187, 188, 189, 190, 191, 192, 193, 194, 195, 196, 197, 198, 199, 200, 201, 202, 203, 204, 205, 206, 207, 208, 209, 210],
      "AcquisitionTime": ["144749.462500", "144751.472500", "144753.480000", "144755.487500", "144757.495000", "144759.502500", "144801.512500", "144803.520000", "144805.527500", "144807.535000", "144809.542500", "144811.552500", "144813.560000", "144815.567500", "144817.575000", "144819.585000", "144821.592500", "144823.600000", "144825.607500", "144827.615000", "144829.625000", "144831.632500", "144833.640000", "144835.647500", "144837.655000", "144839.665000", "144841.672500", "144843.680000", "144845.687500", "144847.695000", "144849.705000", "144851.712500", "144853.720000", "144855.727500", "144857.737500", "144859.745000", "144901.752500", "144903.760000", "144905.767500", "144907.777500", "144909.785000", "144911.792500", "144913.800000", "144915.807500", "144917.817500", "144919.825000", "144921.832500", "144923.840000", "144925.850000", "144927.857500", "144929.865000", "144931.872500", "144933.880000", "144935.890000", "144937.897500", "144939.905000", "144941.912500", "144943.920000", "144945.930000", "144947.937500", "144949.945000", "144951.952500", "144953.962500", "144955.970000", "144957.977500", "144959.985000", "145001.992500", "145004.002500", "145006.010000", "145008.017500", "145010.025000", "145012.032500", "145014.042500", "145016.050000", "145018.057500", "145020.065000", "145022.072500", "145024.082500", "145026.090000", "145028.097500", "145030.105000", "145032.115000", "145034.122500", "145036.130000", "145038.137500", "145040.145000", "145042.155000", "145044.162500", "145046.170000", "145048.177500", "145050.185000", "145052.195000", "145054.202500", "145056.210000", "145058.217500", "145100.227500", "145102.235000", "145104.242500", "145106.250000", "145108.257500", "145110.267500", "145112.275000", "145114.282500", "145116.290000", "145118.297500", "145120.307500", "145122.315000", "145124.322500", "145126.330000", "145128.340000", "145130.347500", "145132.355000", "145134.362500", "145136.370000", "145138.380000", "145140.387500", "145142.395000", "145144.402500", "145146.410000", "145148.420000", "145150.427500", "145152.435000", "145154.442500", "145156.450000", "145158.460000", "145200.467500", "145202.475000", "145204.482500", "145206.492500", "145208.500000", "145210.507500", "145212.515000", "145214.522500", "145216.532500", "145218.540000", "145220.547500", "145222.555000", "145224.562500", "145226.572500", "145228.580000", "145230.587500", "145232.595000", "145234.605000", "145236.612500", "145238.620000", "145240.627500", "145242.635000", "145244.645000", "145246.652500", "145248.660000", "145250.667500", "145252.675000", "145254.685000", "145256.692500", "145258.700000", "145300.707500", "145302.717500", "145304.725000", "145306.732500", "145308.740000", "145310.747500", "145312.757500", "145314.765000", "145316.772500", "145318.780000", "145320.787500", "145322.797500", "145324.805000", "145326.812500", "145328.820000", "145330.830000", "145332.837500", "145334.845000", "145336.852500", "145338.860000", "145340.870000", "145342.877500", "145344.885000", "145346.892500", "145348.900000", "145350.910000", "145352.917500", "145354.925000", "145356.932500", "145358.940000", "145400.950000", "145402.957500", "145404.965000", "145406.972500", "145408.982500", "145410.990000", "145412.997500", "145415.005000", "145417.012500", "145419.022500", "145421.030000", "145423.037500", "145425.045000", "145427.052500", "145429.062500", "145431.070000", "145433.077500", "145435.085000", "145437.095000", "145439.102500", "145441.110000", "145443.117500", "145445.125000", "145447.135000", "145449.142500"],
      "ContentTime": ["144753.109000", "144755.093000", "144757.093000", "144759.093000", "144801.093000", "144803.093000", "144805.093000", "144807.093000", "144809.093000", "144811.093000", "144813.093000", "144815.093000", "144817.093000", "144819.093000", "144821.093000", "144823.093000", "144825.093000", "144827.093000", "144829.093000", "144831.093000", "144833.093000", "144835.093000", "144837.093000", "144839.093000", "144841.093000", "144843.093000", "144845.093000", "144847.093000", "144849.093000", "144851.093000", "144853.093000", "144855.093000", "144857.093000", "144859.093000", "144901.093000", "144903.093000", "144905.093000", "144907.093000", "144909.093000", "144911.093000", "144913.093000", "144915.093000", "144917.093000", "144919.093000", "144921.093000", "144923.093000", "144925.093000", "144927.093000", "144929.093000", "144931.093000", "144933.093000", "144935.093000", "144937.093000", "144939.093000", "144941.093000", "144943.093000", "144945.093000", "144947.093000", "144949.093000", "144951.093000", "144953.093000", "144955.093000", "144957.093000", "144959.093000", "145001.093000", "145003.093000", "145005.093000", "145007.093000", "145009.093000", "145011.093000", "145013.093000", "145015.093000", "145017.093000", "145019.093000", "145021.093000", "145023.093000", "145025.093000", "145027.093000", "145029.093000", "145031.093000", "145033.093000", "145035.093000", "145037.093000", "145039.093000", "145041.093000", "145043.093000", "145045.093000", "145047.093000", "145049.093000", "145051.093000", "145053.093000", "145055.093000", "145057.093000", "145059.093000", "145101.093000", "145103.093000", "145105.093000", "145107.093000", "145109.093000", "145111.093000", "145113.093000", "145115.093000", "145117.093000", "145119.093000", "145121.093000", "145123.093000", "145125.093000", "145127.093000", "145129.093000", "145131.093000", "145133.093000", "145135.093000", "145137.093000", "145139.093000", "145141.093000", "145143.093000", "145145.093000", "145147.093000", "145149.093000", "145151.093000", "145153.093000", "145155.093000", "145157.093000", "145159.093000", "145201.093000", "145203.093000", "145205.093000", "145207.093000", "145209.093000", "145211.093000", "145213.093000", "145215.093000", "145217.093000", "145219.093000", "145221.093000", "145223.093000", "145225.093000", "145227.093000", "145229.093000", "145231.093000", "145233.093000", "145235.093000", "145237.093000", "145239.093000", "145241.093000", "145243.093000", "145245.093000", "145247.093000", "145249.093000", "145251.093000", "145253.093000", "145255.093000", "145257.093000", "145259.093000", "145301.093000", "145303.093000", "145305.093000", "145307.093000", "145309.093000", "145311.093000", "145313.093000", "145315.093000", "145317.093000", "145319.093000", "145321.093000", "145323.093000", "145325.093000", "145327.093000", "145329.093000", "145331.093000", "145333.093000", "145335.093000", "145337.093000", "145339.093000", "145341.093000", "145343.093000", "145345.093000", "145347.093000", "145349.093000", "145351.093000", "145353.093000", "145355.093000", "145357.093000", "145359.093000", "145401.093000", "145403.093000", "145405.093000", "145407.093000", "145409.093000", "145411.093000", "145413.093000", "145415.093000", "145417.093000", "145419.093000", "145421.093000", "145423.093000", "145425.093000", "145427.093000", "145429.093000", "145431.093000", "145433.093000", "145435.093000", "145437.093000", "145439.093000", "145441.093000", "145443.093000", "145445.093000", "145447.093000", "145449.093000", "145450.890000"],
      "InstanceCreationTime": ["144753.109000", "144755.093000", "144757.093000", "144759.093000", "144801.093000", "144803.093000", "144805.093000", "144807.093000", "144809.093000", "144811.093000", "144813.093000", "144815.093000", "144817.093000", "144819.093000", "144821.093000", "144823.093000", "144825.093000", "144827.093000", "144829.093000", "144831.093000", "144833.093000", "144835.093000", "144837.093000", "144839.093000", "144841.093000", "144843.093000", "144845.093000", "144847.093000", "144849.093000", "144851.093000", "144853.093000", "144855.093000", "144857.093000", "144859.093000", "144901.093000", "144903.093000", "144905.093000", "144907.093000", "144909.093000", "144911.093000", "144913.093000", "144915.093000", "144917.093000", "144919.093000", "144921.093000", "144923.093000", "144925.093000", "144927.093000", "144929.093000", "144931.093000", "144933.093000", "144935.093000", "144937.093000", "144939.093000", "144941.093000", "144943.093000", "144945.093000", "144947.093000", "144949.093000", "144951.093000", "144953.093000", "144955.093000", "144957.093000", "144959.093000", "145001.093000", "145003.093000", "145005.093000", "145007.093000", "145009.093000", "145011.093000", "145013.093000", "145015.093000", "145017.093000", "145019.093000", "145021.093000", "145023.093000", "145025.093000", "145027.093000", "145029.093000", "145031.093000", "145033.093000", "145035.093000", "145037.093000", "145039.093000", "145041.093000", "145043.093000", "145045.093000", "145047.093000", "145049.093000", "145051.093000", "145053.093000", "145055.093000", "145057.093000", "145059.093000", "145101.093000", "145103.093000", "145105.093000", "145107.093000", "145109.093000", "145111.093000", "145113.093000", "145115.093000", "145117.093000", "145119.093000", "145121.093000", "145123.093000", "145125.093000", "145127.093000", "145129.093000", "145131.093000", "145133.093000", "145135.093000", "145137.093000", "145139.093000", "145141.093000", "145143.093000", "145145.093000", "145147.093000", "145149.093000", "145151.093000", "145153.093000", "145155.093000", "145157.093000", "145159.093000", "145201.093000", "145203.093000", "145205.093000", "145207.093000", "145209.093000", "145211.093000", "145213.093000", "145215.093000", "145217.093000", "145219.093000", "145221.093000", "145223.093000", "145225.093000", "145227.093000", "145229.093000", "145231.093000", "145233.093000", "145235.093000", "145237.093000", "145239.093000", "145241.093000", "145243.093000", "145245.093000", "145247.093000", "145249.093000", "145251.093000", "145253.093000", "145255.093000", "145257.093000", "145259.093000", "145301.093000", "145303.093000", "145305.093000", "145307.093000", "145309.093000", "145311.093000", "145313.093000", "145315.093000", "145317.093000", "145319.093000", "145321.093000", "145323.093000", "145325.093000", "145327.093000", "145329.093000", "145331.093000", "145333.093000", "145335.093000", "145337.093000", "145339.093000", "145341.093000", "145343.093000", "145345.093000", "145347.093000", "145349.093000", "145351.093000", "145353.093000", "145355.093000", "145357.093000", "145359.093000", "145401.093000", "145403.093000", "145405.093000", "145407.093000", "145409.093000", "145411.093000", "145413.093000", "145415.093000", "145417.093000", "145419.093000", "145421.093000", "145423.093000", "145425.093000", "145427.093000", "145429.093000", "145431.093000", "145433.093000", "145435.093000", "145437.093000", "145439.093000", "145441.093000", "145443.093000", "145445.093000", "145447.093000", "145449.093000", "145450.890000"],
      "InstanceNumber": [1, 2, 3, 4, 5, 6, 7, 8, 9, 10, 11, 12, 13, 14, 15, 16, 17, 18, 19, 20, 21, 22, 23, 24, 25, 26, 27, 28, 29, 30, 31, 32, 33, 34, 35, 36, 37, 38, 39, 40, 41, 42, 43, 44, 45, 46, 47, 48, 49, 50, 51, 52, 53, 54, 55, 56, 57, 58, 59, 60, 61, 62, 63, 64, 65, 66, 67, 68, 69, 70, 71, 72, 73, 74, 75, 76, 77, 78, 79, 80, 81, 82, 83, 84, 85, 86, 87, 88, 89, 90, 91, 92, 93, 94, 95, 96, 97, 98, 99, 100, 101, 102, 103, 104, 105, 106, 107, 108, 109, 110, 111, 112, 113, 114, 115, 116, 117, 118, 119, 120, 121, 122, 123, 124, 125, 126, 127, 128, 129, 130, 131, 132, 133, 134, 135, 136, 137, 138, 139, 140, 141, 142, 143, 144, 145, 146, 147, 148, 149, 150, 151, 152, 153, 154, 155, 156, 157, 158, 159, 160, 161, 162, 163, 164, 165, 166, 167, 168, 169, 170, 171, 172, 173, 174, 175, 176, 177, 178, 179, 180, 181, 182, 183, 184, 185, 186, 187, 188, 189, 190, 191, 192, 193, 194, 195, 196, 197, 198, 199, 200, 201, 202, 203, 204, 205, 206, 207, 208, 209, 210],
      "LargestImagePixelValue": [2137, 2028, 1976, 1971, 1968, 1967, 1971, 1978, 1978, 1976, 1963, 1974, 1974, 1954, 1966, 1979, 1971, 1970, 1968, 1972, 1982, 1972, 1953, 1962, 1962, 1983, 1968, 1961, 1973, 1977, 1965, 1957, 1976, 1977, 1988, 1969, 1969, 1955, 1980, 1957, 1985, 1965, 1965, 1967, 1981, 1977, 1963, 1960, 1966, 1960, 1981, 1973, 1975, 1964, 1984, 1973, 1980, 1969, 1955, 1964, 1962, 1977, 1959, 1965, 1963, 1954, 1972, 1968, 1967, 1988, 1961, 1979, 1958, 1971, 1964, 1976, 1955, 1962, 1990, 1970, 1970, 1967, 1965, 1962, 1968, 1955, 1967, 1985, 1970, 1959, 1959, 1959, 1966, 1955, 1972, 1958, 1962, 1968, 1985, 1971, 1971, 1961, 1960, 1950, 1955, 1991, 1966, 1954, 1961, 1944, 1953, 1964, 1962, 1961, 1961, 1961, 1979, 1970, 1956, 1955, 1968, 1949, 1969, 1949, 1958, 1953, 1960, 1946, 1956, 1946, 1943, 1944, 1951, 1942, 1952, 1939, 1953, 1946, 1943, 1952, 1958, 1953, 1963, 1944, 1948, 1947, 1939, 1964, 1956, 1962, 1950, 1941, 1950, 1958, 1963, 1953, 1961, 1955, 1958, 1961, 1961, 1954, 1958, 1934, 1969, 1963, 1961, 1987, 1977, 1952, 1959, 1953, 1960, 1949, 1940, 1959, 1954, 1945, 1942, 1939, 1931, 1947, 1932, 1943, 1940, 1943, 2017, 1958, 2064, 1973, 1945, 1948, 1959, 1952, 1954, 1933, 1948, 1953, 1984, 1956, 1940, 1937, 2102, 2090, 1942, 1964, 1954, 1947, 1955, 1944],
      "WindowCenter": [778.0, 772.0, 769.0, 767.0, 765.0, 763.0, 763.0, 764.0, 766.0, 767.0, 768.0, 768.0, 768.0, 768.0, 769.0, 770.0, 770.0, 770.0, 770.0, 771.0, 771.0, 771.0, 772.0, 773.0, 773.0, 773.0, 771.0, 769.0, 769.0, 769.0, 768.0, 768.0, 768.0, 767.0, 768.0, 769.0, 769.0, 769.0, 769.0, 769.0, 769.0, 768.0, 769.0, 769.0, 769.0, 769.0, 770.0, 770.0, 770.0, 770.0, 770.0, 770.0, 770.0, 769.0, 770.0, 770.0, 769.0, 768.0, 767.0, 767.0, 767.0, 766.0, 766.0, 768.0, 769.0, 770.0, 769.0, 768.0, 768.0, 769.0, 769.0, 768.0, 769.0, 769.0, 769.0, 769.0, 769.0, 769.0, 770.0, 769.0, 768.0, 769.0, 769.0, 770.0, 769.0, 768.0, 768.0, 768.0, 769.0, 768.0, 768.0, 768.0, 771.0, 770.0, 768.0, 767.0, 766.0, 766.0, 767.0, 768.0, 769.0, 768.0, 768.0, 769.0, 771.0, 771.0, 769.0, 768.0, 769.0, 769.0, 768.0, 766.0, 765.0, 765.0, 766.0, 768.0, 768.0, 768.0, 768.0, 768.0, 768.0, 769.0, 768.0, 768.0, 768.0, 767.0, 767.0, 768.0, 769.0, 769.0, 769.0, 768.0, 769.0, 769.0, 770.0, 770.0, 769.0, 768.0, 768.0, 769.0, 771.0, 770.0, 770.0, 769.0, 770.0, 771.0, 770.0, 768.0, 768.0, 768.0, 769.0, 770.0, 769.0, 769.0, 768.0, 768.0, 769.0, 769.0, 768.0, 767.0, 768.0, 769.0, 769.0, 770.0, 770.0, 770.0, 769.0, 768.0, 767.0, 768.0, 768.0, 768.0, 769.0, 769.0, 768.0, 768.0, 770.0, 770.0, 771.0, 772.0, 771.0, 771.0, 769.0, 767.0, 765.0, 764.0, 763.0, 761.0, 762.0, 763.0, 765.0, 766.0, 767.0, 768.0, 769.0, 769.0, 769.0, 770.0, 769.0, 770.0, 770.0, 772.0, 777.0, 778.0, 772.0, 771.0, 770.0, 769.0, 772.0, 772.0],
      "WindowWidth": [1664.0, 1647.0, 1638.0, 1633.0, 1627.0, 1622.0, 1621.0, 1625.0, 1630.0, 1633.0, 1634.0, 1634.0, 1635.0, 1636.0, 1637.0, 1639.0, 1640.0, 1641.0, 1640.0, 1642.0, 1643.0, 1643.0, 1646.0, 1648.0, 1647.0, 1647.0, 1643.0, 1638.0, 1639.0, 1637.0, 1634.0, 1635.0, 1635.0, 1633.0, 1637.0, 1638.0, 1638.0, 1638.0, 1637.0, 1638.0, 1638.0, 1636.0, 1637.0, 1637.0, 1638.0, 1638.0, 1640.0, 1641.0, 1640.0, 1641.0, 1640.0, 1639.0, 1640.0, 1638.0, 1640.0, 1640.0, 1637.0, 1636.0, 1634.0, 1633.0, 1632.0, 1632.0, 1632.0, 1635.0, 1638.0, 1639.0, 1639.0, 1636.0, 1636.0, 1638.0, 1637.0, 1637.0, 1638.0, 1638.0, 1637.0, 1637.0, 1637.0, 1638.0, 1640.0, 1639.0, 1636.0, 1638.0, 1639.0, 1641.0, 1637.0, 1636.0, 1636.0, 1637.0, 1637.0, 1636.0, 1635.0, 1636.0, 1643.0, 1640.0, 1636.0, 1634.0, 1631.0, 1631.0, 1633.0, 1636.0, 1637.0, 1635.0, 1635.0, 1638.0, 1643.0, 1643.0, 1638.0, 1636.0, 1638.0, 1637.0, 1635.0, 1631.0, 1628.0, 1629.0, 1631.0, 1635.0, 1635.0, 1636.0, 1637.0, 1636.0, 1636.0, 1638.0, 1636.0, 1635.0, 1635.0, 1634.0, 1634.0, 1635.0, 1639.0, 1639.0, 1638.0, 1637.0, 1638.0, 1639.0, 1641.0, 1641.0, 1638.0, 1635.0, 1637.0, 1639.0, 1645.0, 1642.0, 1640.0, 1638.0, 1640.0, 1643.0, 1641.0, 1635.0, 1634.0, 1635.0, 1639.0, 1641.0, 1638.0, 1637.0, 1636.0, 1637.0, 1639.0, 1637.0, 1636.0, 1634.0, 1634.0, 1637.0, 1637.0, 1639.0, 1641.0, 1640.0, 1637.0, 1636.0, 1634.0, 1635.0, 1635.0, 1635.0, 1638.0, 1637.0, 1635.0, 1637.0, 1640.0, 1641.0, 1643.0, 1645.0, 1644.0, 1642.0, 1637.0, 1634.0, 1628.0, 1625.0, 1622.0, 1617.0, 1620.0, 1624.0, 1629.0, 1631.0, 1633.0, 1635.0, 1639.0, 1639.0, 1639.0, 1640.0, 1639.0, 1640.0, 1640.0, 1646.0, 1660.0, 1662.0, 1645.0, 1643.0, 1641.0, 1639.0, 1645.0, 1646.0]
    },
    "slices": {}
  }
}