{
  "AcquisitionMatrixPE": 64,
  "AcquisitionNumber": 1,
  "AcquisitionTime": "10:57:18.035000",
  "BaseResolution": 64,
  "BidsGuess": [
    "fmap",
    "_acq-fm2_phasediff"
  ],
  "CoilCombinationMethod": "Adaptive Combine",
  "CoilString": "C:HEA;HEP",
  "ConversionSoftware": "dcm2niix",
  "ConversionSoftwareVersion": "v1.0.20240202",
  "DeviceSerialNumber": "35119",
  "DwellTime": 0.00003,
  "EchoNumber": 2,
  "EchoTime": 0.00765,
  "EchoTime1": 0.00519,
  "EchoTime2": 0.00765,
  "FlipAngle": 60,
  "HeudiconvVersion": "1.1.6",
  "ImageComments": "V",
  "ImageOrientationPatientDICOM": [
    0.998299,
    0.013034,
    0.056827,
    0,
    0.974691,
    -0.223556
  ],
  "ImageOrientationText": "Tra>Cor(-12.9)>Sag(3.3)",
  "ImageType": [
    "ORIGINAL",
    "PRIMARY",
    "P",
    "ND",
    "PHASE"
  ],
  "ImagingFrequency": 123.251949,
  "InPlanePhaseEncodingDirectionDICOM": "COL",
  "InstitutionAddress": "Chaucer Road  15,Cambridge,UK,GB,CB2 2EF",
  "InstitutionName": "MRC-CBU",
  "IntendedFor": [
    "ses-mri/func/sub-13_ses-mri_task-facerecognition_run-01_bold.nii.gz",
    "ses-mri/func/sub-13_ses-mri_task-facerecognition_run-02_bold.nii.gz",
    "ses-mri/func/sub-13_ses-mri_task-facerecognition_run-03_bold.nii.gz",
    "ses-mri/func/sub-13_ses-mri_task-facerecognition_run-04_bold.nii.gz",
    "ses-mri/func/sub-13_ses-mri_task-facerecognition_run-05_bold.nii.gz",
    "ses-mri/func/sub-13_ses-mri_task-facerecognition_run-06_bold.nii.gz",
    "ses-mri/func/sub-13_ses-mri_task-facerecognition_run-07_bold.nii.gz",
    "ses-mri/func/sub-13_ses-mri_task-facerecognition_run-08_bold.nii.gz",
    "ses-mri/func/sub-13_ses-mri_task-facerecognition_run-09_bold.nii.gz"
  ],
  "MRAcquisitionType": "2D",
  "MagneticFieldStrength": 3,
  "Manufacturer": "Siemens",
  "ManufacturersModelName": "TrioTim",
  "MatrixCoilMode": "SENSE",
  "Modality": "MR",
  "NonlinearGradientCorrection": false,
  "PartialFourier": 1,
  "PatientPosition": "HFS",
  "PercentPhaseFOV": 100,
  "PercentSampling": 100,
  "PhaseEncodingDirection": "j-",
  "PhaseEncodingSteps": 64,
  "PhaseResolution": 1,
  "PixelBandwidth": 260,
  "ProcedureStepDescription": "CBU^Neuroimaging",
  "ProtocolName": "CBU_FieldMapping",
  "PulseSequenceDetails": "%SiemensSeq%\\gre_field_mapping",
  "ReceiveCoilName": "HeadMatrix",
  "ReconMatrixPE": 64,
  "RepetitionTime": 0.4,
  "SAR": 0.185201,
  "ScanningSequence": "GR",
  "SequenceName": "*fm2d2r",
  "SequenceVariant": "SP",
  "SeriesDescription": "CBU_FieldMapping",
  "SeriesNumber": 13,
  "ShimSetting": [
    -7762,
    -8717,
    -2302,
    927,
    347,
    526,
    435,
    -106
  ],
  "SliceThickness": 3,
  "SliceTiming": [
    0,
    0.21094,
    0.01562,
    0.22656,
    0.03125,
    0.23438,
    0.03906,
    0.25,
    0.05469,
    0.25781,
    0.0625,
    0.27344,
    0.07812,
    0.28125,
    0.08594,
    0.29688,
    0.10156,
    0.3125,
    0.11719,
    0.32031,
    0.125,
    0.32812,
    0.14062,
    0.34375,
    0.14844,
    0.35938,
    0.16406,
    0.36719,
    0.17188,
    0.38281,
    0.1875,
    0.39062,
    0.19531
  ],
  "SoftwareVersions": "syngo MR B15",
  "SpacingBetweenSlices": 3.9,
  "StationName": "MRC35119",
  "TxRefAmp": 318.558,
  "dcmmeta_affine": [
    [
      -2.99489688873291,
      0.0,
      0.22737999260425568,
      96.9637451171875
    ],
    [
      -0.03910199925303459,
      2.9240729808807373,
      -0.8703839778900146,
      -67.60460662841797
    ],
    [
      0.17048099637031555,
      0.6706680059432983,
      3.794830083847046,
      -64.7030029296875
    ],
    [
      0.0,
      0.0,
      0.0,
      1.0
    ]
  ],
  "dcmmeta_reorient_transform": [
    [
      0.0,
      -1.0,
      0.0,
      63.0
    ],
    [
      1.0,
      0.0,
      0.0,
      0.0
    ],
    [
      0.0,
      0.0,
      -1.0,
      32.0
    ],
    [
      0.0,
      0.0,
      0.0,
      1.0
    ]
  ],
  "dcmmeta_shape": [
    64,
    64,
    33
  ],
  "dcmmeta_slice_dim": 2,
  "dcmmeta_version": 0.6,
  "global": {
    "const": {
      "AcquisitionMatrix": [
        64,
        0,
        0,
        64
      ],
      "AcquisitionNumber": 1,
      "AngioFlag": "N",
      "BitsAllocated": 16,
      "BitsStored": 12,
      "Columns": 64,
      "EchoNumbers": 2,
      "EchoTime": 7.65,
      "EchoTrainLength": 1,
      "FlipAngle": 60.0,
      "HighBit": 11,
      "ImageOrientationPatient": [
        0.998299,
        0.013034,
        0.056827,
        0.0,
        0.974691,
        -0.223556
      ],
      "ImageType": [
        "ORIGINAL",
        "PRIMARY",
        "P",
        "ND"
      ],
      "ImagedNucleus": "1H",
      "ImagingFrequency": 123.251949,
      "InPlanePhaseEncodingDirection": "COL",
      "MRAcquisitionType": "2D",
      "MagneticFieldStrength": 3.0,
      "Manufacturer": "SIEMENS",
      "ManufacturerModelName": "TrioTim",
      "Modality": "MR",
      "NumberOfAverages": 1.0,
      "NumberOfPhaseEncodingSteps": 64,
      "PercentPhaseFieldOfView": 100.0,
      "PercentSampling": 100.0,
      "PerformedProcedureStepStartTime": "093853.812000",
      "PhotometricInterpretation": "MONOCHROME2",
      "PixelAspectRatio": [
        1,
        1
      ],
      "PixelBandwidth": 260.0,
      "PixelRepresentation": 0,
      "PixelSpacing": [
        3.0,
        3.0
      ],
      "ProtocolName": "CBU_FieldMapping",
      "RepetitionTime": 400.0,
      "RescaleIntercept": -4096.0,
      "RescaleSlope": 2.0,
      "RescaleType": "US",
      "Rows": 64,
      "SAR": 0.185201,
      "SamplesPerPixel": 1,
      "ScanningSequence": "GR",
      "SequenceName": "*fm2d2r",
      "SequenceVariant": "SP",
      "SeriesDescription": "CBU_FieldMapping",
      "SeriesNumber": 13,
      "SeriesTime": "105811.781000",
      "SliceThickness": 3.0,
      "SoftwareVersions": "syngo MR B15",
      "SpacingBetweenSlices": 3.9,
      "SpecificCharacterSet": "ISO_IR 100",
      "StudyID": "1",
      "StudyTime": "093853.750000",
      "TransmitCoilName": "Body",
      "VariableFlipAngleFlag": "N",
      "WindowCenterWidthExplanation": "Algo1",
      "dBdt": 0.0
    },
    "slices": {
      "AcquisitionTime": [
        "105718.035000",
        "105718.242500",
        "105718.047500",
        "105718.255000",
        "105718.060000",
        "105718.265000",
        "105718.072500",
        "105718.277500",
        "105718.082500",
        "105718.290000",
        "105718.095000",
        "105718.302500",
        "105718.107500",
        "105718.315000",
        "105718.120000",
        "105718.327500",
        "105718.132500",
        "105718.340000",
        "105718.145000",
        "105718.352500",
        "105718.157500",
        "105718.362500",
        "105718.170000",
        "105718.375000",
        "105718.180000",
        "105718.387500",
        "105718.192500",
        "105718.400000",
        "105718.205000",
        "105718.412500",
        "105718.217500",
        "105718.425000",
        "105718.230000"
      ],
      "ContentTime": [
        "105811.796000",
        "105813.125000",
        "105811.812000",
        "105813.140000",
        "105811.812000",
        "105813.140000",
        "105812.984000",
        "105813.140000",
        "105812.984000",
        "105813.156000",
        "105813.000000",
        "105813.156000",
        "105813.015000",
        "105813.187000",
        "105813.015000",
        "105813.468000",
        "105813.015000",
        "105813.468000",
        "105813.015000",
        "105813.484000",
        "105813.046000",
        "105813.484000",
        "105813.078000",
        "105813.484000",
        "105813.078000",
        "105813.484000",
        "105813.078000",
        "105813.500000",
        "105813.109000",
        "105813.500000",
        "105813.109000",
        "105813.562000",
        "105813.109000"
      ],
      "CsaImage.ICE_Dims": [
        "X_2_1_1_1_1_1_1_1_1_1_1_46",
        "X_2_1_1_1_1_1_18_1_1_2_1_46",
        "X_2_1_1_1_1_1_2_1_1_3_1_46",
        "X_2_1_1_1_1_1_19_1_1_4_1_46",
        "X_2_1_1_1_1_1_3_1_1_5_1_46",
        "X_2_1_1_1_1_1_20_1_1_6_1_46",
        "X_2_1_1_1_1_1_4_1_1_7_1_46",
        "X_2_1_1_1_1_1_21_1_1_8_1_46",
        "X_2_1_1_1_1_1_5_1_1_9_1_46",
        "X_2_1_1_1_1_1_22_1_1_10_1_46",
        "X_2_1_1_1_1_1_6_1_1_11_1_46",
        "X_2_1_1_1_1_1_23_1_1_12_1_46",
        "X_2_1_1_1_1_1_7_1_1_13_1_46",
        "X_2_1_1_1_1_1_24_1_1_14_1_46",
        "X_2_1_1_1_1_1_8_1_1_15_1_46",
        "X_2_1_1_1_1_1_25_1_1_16_1_46",
        "X_2_1_1_1_1_1_9_1_1_17_1_46",
        "X_2_1_1_1_1_1_26_1_1_18_1_46",
        "X_2_1_1_1_1_1_10_1_1_19_1_46",
        "X_2_1_1_1_1_1_27_1_1_20_1_46",
        "X_2_1_1_1_1_1_11_1_1_21_1_46",
        "X_2_1_1_1_1_1_28_1_1_22_1_46",
        "X_2_1_1_1_1_1_12_1_1_23_1_46",
        "X_2_1_1_1_1_1_29_1_1_24_1_46",
        "X_2_1_1_1_1_1_13_1_1_25_1_46",
        "X_2_1_1_1_1_1_30_1_1_26_1_46",
        "X_2_1_1_1_1_1_14_1_1_27_1_46",
        "X_2_1_1_1_1_1_31_1_1_28_1_46",
        "X_2_1_1_1_1_1_15_1_1_29_1_46",
        "X_2_1_1_1_1_1_32_1_1_30_1_46",
        "X_2_1_1_1_1_1_16_1_1_31_1_46",
        "X_2_1_1_1_1_1_33_1_1_32_1_46",
        "X_2_1_1_1_1_1_17_1_1_33_1_46"
      ],
      "CsaImage.ProtocolSliceNumber": [
        0,
        1,
        2,
        3,
        4,
        5,
        6,
        7,
        8,
        9,
        10,
        11,
        12,
        13,
        14,
        15,
        16,
        17,
        18,
        19,
        20,
        21,
        22,
        23,
        24,
        25,
        26,
        27,
        28,
        29,
        30,
        31,
        32
      ],
      "CsaImage.SlicePosition_PCS": [
        [
          -96.96373742,
          -116.61197546,
          -22.45090261
        ],
        [
          -97.1911177,
          -115.74159125,
          -18.65607229
        ],
        [
          -97.41849797,
          -114.87120703,
          -14.86124388
        ],
        [
          -97.64587813,
          -114.00082472,
          -11.06641355
        ],
        [
          -97.87325841,
          -113.13044051,
          -7.27158514
        ],
        [
          -98.10063868,
          -112.2600582,
          -3.47675482
        ],
        [
          -98.32801896,
          -111.38967398,
          0.31807455
        ],
        [
          -98.55539899,
          -110.51928976,
          4.11290392
        ],
        [
          -98.78277927,
          -109.6489065,
          7.90773329
        ],
        [
          -99.01015955,
          -108.77852324,
          11.70256313
        ],
        [
          -99.23753982,
          -107.90813998,
          15.49739244
        ],
        [
          -99.4649201,
          -107.03775576,
          19.29222187
        ],
        [
          -99.69230037,
          -106.1673725,
          23.08705124
        ],
        [
          -99.91968041,
          -105.29698923,
          26.88188109
        ],
        [
          -100.14706069,
          -104.42660597,
          30.67671045
        ],
        [
          -100.37444096,
          -103.55622176,
          34.47154078
        ],
        [
          -100.60182124,
          -102.68583849,
          38.26636919
        ],
        [
          -100.82920151,
          -101.81545523,
          42.06119951
        ],
        [
          -101.05658179,
          -100.94507149,
          45.85602793
        ],
        [
          -101.28396206,
          -100.07468823,
          49.65085825
        ],
        [
          -101.51134234,
          -99.20430449,
          53.44568857
        ],
        [
          -101.73872262,
          -98.33392123,
          57.24051508
        ],
        [
          -101.96610241,
          -97.46353773,
          61.0353454
        ],
        [
          -102.19348269,
          -96.59315422,
          64.83017573
        ],
        [
          -102.42086297,
          -95.72277072,
          68.62500605
        ],
        [
          -102.64824324,
          -94.85238719,
          72.41983637
        ],
        [
          -102.87562352,
          -93.98200366,
          76.21466288
        ],
        [
          -103.10300379,
          -93.11162022,
          80.00949701
        ],
        [
          -103.33038407,
          -92.24123672,
          83.80431971
        ],
        [
          -103.55776434,
          -91.37085322,
          87.59915003
        ],
        [
          -103.78514462,
          -90.50046948,
          91.39398035
        ],
        [
          -104.0125249,
          -89.63008622,
          95.18881067
        ],
        [
          -104.23990469,
          -88.75970248,
          98.983641
        ]
      ],
      "CsaImage.TimeAfterStart": [
        0.405,
        0.6125,
        0.4175,
        0.625,
        0.43,
        0.6375,
        0.4425,
        0.6475,
        0.455,
        0.66,
        0.465,
        0.6725,
        0.4775,
        0.685,
        0.49,
        0.6975,
        0.5025,
        0.71,
        0.515,
        0.7225,
        0.5275,
        0.735,
        0.54,
        0.745,
        0.5525,
        0.7575,
        0.5625,
        0.77,
        0.575,
        0.7825,
        0.5875,
        0.795,
        0.6
      ],
      "ImagePositionPatient": [
        [
          -96.963737,
          -116.611975,
          -22.450903
        ],
        [
          -97.191118,
          -115.741591,
          -18.656072
        ],
        [
          -97.418498,
          -114.871207,
          -14.861244
        ],
        [
          -97.645878,
          -114.000825,
          -11.066414
        ],
        [
          -97.873258,
          -113.130441,
          -7.271585
        ],
        [
          -98.100639,
          -112.260058,
          -3.476755
        ],
        [
          -98.328019,
          -111.389674,
          0.318075
        ],
        [
          -98.555399,
          -110.51929,
          4.112904
        ],
        [
          -98.782779,
          -109.648907,
          7.907733
        ],
        [
          -99.01016,
          -108.778523,
          11.702563
        ],
        [
          -99.23754,
          -107.90814,
          15.497392
        ],
        [
          -99.46492,
          -107.037756,
          19.292222
        ],
        [
          -99.6923,
          -106.167372,
          23.087051
        ],
        [
          -99.91968,
          -105.296989,
          26.881881
        ],
        [
          -100.147061,
          -104.426606,
          30.67671
        ],
        [
          -100.374441,
          -103.556222,
          34.471541
        ],
        [
          -100.601821,
          -102.685838,
          38.266369
        ],
        [
          -100.829202,
          -101.815455,
          42.0612
        ],
        [
          -101.056582,
          -100.945071,
          45.856028
        ],
        [
          -101.283962,
          -100.074688,
          49.650858
        ],
        [
          -101.511342,
          -99.204304,
          53.445689
        ],
        [
          -101.738723,
          -98.333921,
          57.240515
        ],
        [
          -101.966102,
          -97.463538,
          61.035345
        ],
        [
          -102.193483,
          -96.593154,
          64.830176
        ],
        [
          -102.420863,
          -95.722771,
          68.625006
        ],
        [
          -102.648243,
          -94.852387,
          72.419836
        ],
        [
          -102.875624,
          -93.982004,
          76.214663
        ],
        [
          -103.103004,
          -93.11162,
          80.009497
        ],
        [
          -103.330384,
          -92.241237,
          83.80432
        ],
        [
          -103.557764,
          -91.370853,
          87.59915
        ],
        [
          -103.785145,
          -90.500469,
          91.39398
        ],
        [
          -104.012525,
          -89.630086,
          95.188811
        ],
        [
          -104.239905,
          -88.759702,
          98.983641
        ]
      ],
      "InstanceCreationTime": [
        "105811.796000",
        "105813.125000",
        "105811.812000",
        "105813.140000",
        "105811.812000",
        "105813.140000",
        "105812.984000",
        "105813.140000",
        "105812.984000",
        "105813.156000",
        "105813.000000",
        "105813.156000",
        "105813.015000",
        "105813.187000",
        "105813.015000",
        "105813.468000",
        "105813.015000",
        "105813.468000",
        "105813.015000",
        "105813.484000",
        "105813.046000",
        "105813.484000",
        "105813.078000",
        "105813.484000",
        "105813.078000",
        "105813.484000",
        "105813.078000",
        "105813.500000",
        "105813.109000",
        "105813.500000",
        "105813.109000",
        "105813.562000",
        "105813.109000"
      ],
      "InstanceNumber": [
        1,
        2,
        3,
        4,
        5,
        6,
        7,
        8,
        9,
        10,
        11,
        12,
        13,
        14,
        15,
        16,
        17,
        18,
        19,
        20,
        21,
        22,
        23,
        24,
        25,
        26,
        27,
        28,
        29,
        30,
        31,
        32,
        33
      ],
      "LargestImagePixelValue": [
        4094,
        4092,
        4092,
        4091,
        4093,
        4094,
        4087,
        4088,
        4092,
        4094,
        4085,
        4086,
        4094,
        4081,
        4063,
        4067,
        4093,
        4074,
        4077,
        4086,
        4083,
        4089,
        4075,
        4087,
        4086,
        4091,
        4092,
        4094,
        4094,
        4094,
        4094,
        4089,
        4093
      ],
      "SliceLocation": [
        -42.217141,
        -38.31714,
        -34.417141,
        -30.517141,
        -26.617142,
        -22.717141,
        -18.817141,
        -14.917141,
        -11.017141,
        -7.117141,
        -3.217141,
        0.682859,
        4.582859,
        8.482859,
        12.382859,
        16.28286,
        20.182859,
        24.08286,
        27.982859,
        31.882859,
        35.78286,
        39.682857,
        43.582858,
        47.482859,
        51.38286,
        55.282861,
        59.182858,
        63.082862,
        66.982856,
        70.882856,
        74.782857,
        78.682858,
        82.582859
      ],
      "SmallestImagePixelValue": [
        2,
        2,
        1,
        2,
        1,
        2,
        2,
        2,
        4,
        1,
        45,
        3,
        5,
        1,
        11,
        15,
        5,
        6,
        1,
        0,
        12,
        3,
        20,
        4,
        2,
        3,
        0,
        0,
        2,
        0,
        2,
        2,
        3
      ],
      "WindowCenter": [
        -538.0,
        -538.0,
        -570.0,
        -474.0,
        -428.0,
        -432.0,
        -386.0,
        -360.0,
        -326.0,
        -246.0,
        -194.0,
        -150.0,
        -100.0,
        -100.0,
        -88.0,
        -70.0,
        -54.0,
        -70.0,
        -54.0,
        -34.0,
        -70.0,
        -80.0,
        -82.0,
        -84.0,
        -138.0,
        -182.0,
        -164.0,
        -160.0,
        -232.0,
        -286.0,
        -332.0,
        -300.0,
        -390.0
      ],
      "WindowWidth": [
        4820.0,
        4770.0,
        4696.0,
        4584.0,
        4502.0,
        4388.0,
        4284.0,
        4124.0,
        4028.0,
        3890.0,
        3888.0,
        3866.0,
        3834.0,
        3908.0,
        3948.0,
        3946.0,
        3964.0,
        4016.0,
        4008.0,
        4008.0,
        4008.0,
        4032.0,
        4052.0,
        4060.0,
        4162.0,
        4156.0,
        4276.0,
        4334.0,
        4394.0,
        4504.0,
        4574.0,
        4702.0,
        4814.0
      ]
    }
  }
}
