{
  "AcquisitionMatrixPE": 64,
  "AcquisitionNumber": 1,
  "AcquisitionTime": "14:10:28.050000",
  "BandwidthPerPixelPhaseEncode": 30.637,
  "BaseResolution": 64,
  "BidsGuess": [
    "func",
    "_acq-epfid2_dir-AP_run-3_bold"
],
  "CoilCombinationMethod": "Sum of Squares",
  "CoilString": "C:HEA;HEP",
  "ConversionSoftware": "dcm2niix",
  "ConversionSoftwareVersion": "v1.0.20240202",
  "DerivedVendorReportedEchoSpacing": 0.000510004,
  "DeviceSerialNumber": "35119",
  "DwellTime": 3.5e-06,
  "EchoTime": 0.03,
  "EffectiveEchoSpacing": 0.000510004,
  "FlipAngle": 78,
  "HeudiconvVersion": "1.1.6",
  "ImageComments": "V",
  "ImageOrientationPatientDICOM": [0.999615, 0.009818, 0.025954, 0, 0.93532, -0.353803],
  "ImageOrientationText": "Tra>Cor(-20.7)>Sag(1.6)",
  "ImageType": [
    "ORIGINAL",
    "PRIMARY",
    "M",
    "ND",
    "MOSAIC"
],
  "ImagingFrequency": 123.251766,
  "InPlanePhaseEncodingDirectionDICOM": "COL",
  "InstitutionAddress": "Chaucer Road  15,Cambridge,UK,GB,CB2 2EF",
  "InstitutionName": "MRC-CBU",
  "MRAcquisitionType": "2D",
  "MagneticFieldStrength": 3,
  "Manufacturer": "Siemens",
  "ManufacturersModelName": "TrioTim",
  "MatrixCoilMode": "SENSE",
  "Modality": "MR",
  "NonlinearGradientCorrection": false,
  "PartialFourier": 1,
  "PatientPosition": "HFS",
  "PercentPhaseFOV": 100,
  "PercentSampling": 100,
  "PhaseEncodingDirection": "j-",
  "PhaseEncodingSteps": 64,
  "PhaseResolution": 1,
  "PixelBandwidth": 2230,
  "ProcedureStepDescription": "CBU^Neuroimaging",
  "ProtocolName": "CBU_DWEPI_BOLD210",
  "PulseSequenceDetails": "%SiemensSeq%\\ep2d_bold",
  "ReceiveCoilName": "HeadMatrix",
  "ReconMatrixPE": 64,
  "RepetitionTime": 2,
  "SAR": 0.141173,
  "ScanOptions": "FS",
  "ScanningSequence": "EP",
  "SequenceName": "*epfid2d1_64",
  "SequenceVariant": "SK",
  "SeriesDescription": "CBU_DWEPI_BOLD210",
  "SeriesNumber": 3,
  "ShimSetting": [-7807, -8728, -2069, 670, 276, 297, -261, 4],
  "SliceThickness": 3,
  "SliceTiming": [0, 1.035, 0.0625, 1.095, 0.1225, 1.1575, 0.1825, 1.2175, 0.245, 1.2775, 0.305, 1.34, 0.365, 1.4, 0.4275, 1.46, 0.4875, 1.5225, 0.5475, 1.5825, 0.61, 1.6425, 0.67, 1.705, 0.73, 1.765, 0.7925, 1.825, 0.8525, 1.8875, 0.9125, 1.9475, 0.975],
  "SoftwareVersions": "syngo MR B15",
  "SpacingBetweenSlices": 3.9,
  "StationName": "MRC35119",
  "TaskName": "faceprocessing",
  "TotalReadoutTime": 0.0321303,
  "TxRefAmp": 310.592,
  "dcmmeta_affine": [
    [-2.998845100402832, 0.0, 0.10822083801031113, 98.60254669189453],
    [-0.029454000294208527, 2.805959939956665, -1.3793004751205444, -57.23212432861328],
    [0.07786200195550919, 1.0614089965820312, 3.64634370803833, -71.4105224609375],
    [0.0, 0.0, 0.0, 1.0]
],
  "dcmmeta_reorient_transform": [
    [0.0, -1.0, 0.0, 63.0],
    [1.0, 0.0, 0.0, 0.0],
    [0.0, 0.0, 1.0, 0.0],
    [0.0, 0.0, 0.0, 1.0]
],
  "dcmmeta_shape": [64, 64, 33, 210],
  "dcmmeta_slice_dim": 2,
  "dcmmeta_version": 0.6,
  "global": {
    "const": {
      "AcquisitionMatrix": [64, 0, 0, 64],
      "AngioFlag": "N",
      "BitsAllocated": 16,
      "BitsStored": 12,
      "Columns": 384,
      "EchoNumbers": 1,
      "EchoTime": 30.0,
      "EchoTrainLength": 1,
      "FlipAngle": 78.0,
      "HighBit": 11,
      "ImageOrientationPatient": [0.999615, 0.009818, 0.025954, 0.0, 0.93532, -0.353803],
      "ImagePositionPatient": [-578.41775, -573.209596, 152.825764],
      "ImageType": [
        "ORIGINAL",
        "PRIMARY",
        "M",
        "ND",
        "MOSAIC"
],
      "ImagedNucleus": "1H",
      "ImagingFrequency": 123.251766,
      "InPlanePhaseEncodingDirection": "COL",
      "MRAcquisitionType": "2D",
      "MagneticFieldStrength": 3.0,
      "Manufacturer": "SIEMENS",
      "ManufacturerModelName": "TrioTim",
      "Modality": "MR",
      "NumberOfAverages": 1.0,
      "NumberOfPhaseEncodingSteps": 64,
      "PercentPhaseFieldOfView": 100.0,
      "PercentSampling": 100.0,
      "PerformedProcedureStepStartTime": "135928.531000",
      "PhotometricInterpretation": "MONOCHROME2",
      "PixelAspectRatio": [1, 1],
      "PixelBandwidth": 2230.0,
      "PixelRepresentation": 0,
      "PixelSpacing": [3.0, 3.0],
      "ProtocolName": "CBU_DWEPI_BOLD210",
      "RepetitionTime": 2000.0,
      "Rows": 384,
      "SAR": 0.141173,
      "SamplesPerPixel": 1,
      "ScanOptions": "FS",
      "ScanningSequence": "EP",
      "SequenceName": "*epfid2d1_64",
      "SequenceVariant": "SK",
      "SeriesDescription": "CBU_DWEPI_BOLD210",
      "SeriesNumber": 3,
      "SeriesTime": "141032.390000",
      "SliceLocation": -43.788955,
      "SliceThickness": 3.0,
      "SmallestImagePixelValue": 0,
      "SoftwareVersions": "syngo MR B15",
      "SpacingBetweenSlices": 3.9,
      "SpecificCharacterSet": "ISO_IR 100",
      "StudyID": "1",
      "StudyTime": "135928.468000",
      "TransmitCoilName": "Body",
      "VariableFlipAngleFlag": "N",
      "WindowCenterWidthExplanation": "Algo1",
      "dBdt": 0.0},
    "slices": {}
  },
  "time": {
    "samples": {
      "AcquisitionNumber": [1, 2, 3, 4, 5, 6, 7, 8, 9, 10, 11, 12, 13, 14, 15, 16, 17, 18, 19, 20, 21, 22, 23, 24, 25, 26, 27, 28, 29, 30, 31, 32, 33, 34, 35, 36, 37, 38, 39, 40, 41, 42, 43, 44, 45, 46, 47, 48, 49, 50, 51, 52, 53, 54, 55, 56, 57, 58, 59, 60, 61, 62, 63, 64, 65, 66, 67, 68, 69, 70, 71, 72, 73, 74, 75, 76, 77, 78, 79, 80, 81, 82, 83, 84, 85, 86, 87, 88, 89, 90, 91, 92, 93, 94, 95, 96, 97, 98, 99, 100, 101, 102, 103, 104, 105, 106, 107, 108, 109, 110, 111, 112, 113, 114, 115, 116, 117, 118, 119, 120, 121, 122, 123, 124, 125, 126, 127, 128, 129, 130, 131, 132, 133, 134, 135, 136, 137, 138, 139, 140, 141, 142, 143, 144, 145, 146, 147, 148, 149, 150, 151, 152, 153, 154, 155, 156, 157, 158, 159, 160, 161, 162, 163, 164, 165, 166, 167, 168, 169, 170, 171, 172, 173, 174, 175, 176, 177, 178, 179, 180, 181, 182, 183, 184, 185, 186, 187, 188, 189, 190, 191, 192, 193, 194, 195, 196, 197, 198, 199, 200, 201, 202, 203, 204, 205, 206, 207, 208, 209, 210],
      "AcquisitionTime": ["141028.050000", "141030.057500", "141032.067500", "141034.075000", "141036.082500", "141038.090000", "141040.097500", "141042.107500", "141044.115000", "141046.122500", "141048.130000", "141050.140000", "141052.147500", "141054.155000", "141056.162500", "141058.170000", "141100.180000", "141102.187500", "141104.195000", "141106.202500", "141108.210000", "141110.220000", "141112.227500", "141114.235000", "141116.242500", "141118.252500", "141120.260000", "141122.267500", "141124.275000", "141126.282500", "141128.292500", "141130.300000", "141132.307500", "141134.315000", "141136.322500", "141138.332500", "141140.340000", "141142.347500", "141144.355000", "141146.365000", "141148.372500", "141150.380000", "141152.387500", "141154.395000", "141156.405000", "141158.412500", "141200.420000", "141202.427500", "141204.435000", "141206.445000", "141208.452500", "141210.460000", "141212.467500", "141214.475000", "141216.485000", "141218.492500", "141220.500000", "141222.507500", "141224.517500", "141226.525000", "141228.532500", "141230.540000", "141232.547500", "141234.557500", "141236.565000", "141238.572500", "141240.580000", "141242.587500", "141244.597500", "141246.605000", "141248.612500", "141250.620000", "141252.630000", "141254.637500", "141256.645000", "141258.652500", "141300.660000", "141302.670000", "141304.677500", "141306.685000", "141308.692500", "141310.700000", "141312.710000", "141314.717500", "141316.725000", "141318.732500", "141320.742500", "141322.750000", "141324.757500", "141326.765000", "141328.772500", "141330.782500", "141332.790000", "141334.797500", "141336.805000", "141338.812500", "141340.822500", "141342.830000", "141344.837500", "141346.845000", "141348.852500", "141350.862500", "141352.870000", "141354.877500", "141356.885000", "141358.895000", "141400.902500", "141402.910000", "141404.917500", "141406.925000", "141408.935000", "141410.942500", "141412.950000", "141414.957500", "141416.965000", "141418.975000", "141420.982500", "141422.990000", "141424.997500", "141427.007500", "141429.015000", "141431.022500", "141433.030000", "141435.037500", "141437.047500", "141439.055000", "141441.062500", "141443.070000", "141445.077500", "141447.087500", "141449.095000", "141451.102500", "141453.110000", "141455.120000", "141457.127500", "141459.135000", "141501.142500", "141503.150000", "141505.160000", "141507.167500", "141509.175000", "141511.182500", "141513.190000", "141515.200000", "141517.207500", "141519.215000", "141521.222500", "141523.232500", "141525.240000", "141527.247500", "141529.255000", "141531.262500", "141533.272500", "141535.280000", "141537.287500", "141539.295000", "141541.302500", "141543.312500", "141545.320000", "141547.327500", "141549.335000", "141551.342500", "141553.352500", "141555.360000", "141557.367500", "141559.375000", "141601.385000", "141603.392500", "141605.400000", "141607.407500", "141609.415000", "141611.425000", "141613.432500", "141615.440000", "141617.447500", "141619.455000", "141621.465000", "141623.472500", "141625.480000", "141627.487500", "141629.497500", "141631.505000", "141633.512500", "141635.520000", "141637.527500", "141639.537500", "141641.545000", "141643.552500", "141645.560000", "141647.567500", "141649.577500", "141651.585000", "141653.592500", "141655.600000", "141657.610000", "141659.617500", "141701.625000", "141703.632500", "141705.640000", "141707.650000", "141709.657500", "141711.665000", "141713.672500", "141715.680000", "141717.690000", "141719.697500", "141721.705000", "141723.712500", "141725.720000", "141727.730000"],
      "ContentTime": ["141032.390000", "141033.359000", "141035.359000", "141037.359000", "141039.359000", "141041.859000", "141044.359000", "141045.359000", "141047.359000", "141049.859000", "141051.359000", "141053.359000", "141055.859000", "141057.859000", "141059.359000", "141101.359000", "141103.359000", "141105.359000", "141110.359000", "141110.375000", "141111.359000", "141113.359000", "141115.359000", "141117.359000", "141119.359000", "141121.359000", "141123.359000", "141125.359000", "141127.359000", "141129.359000", "141131.859000", "141133.359000", "141135.359000", "141138.859000", "141139.859000", "141141.359000", "141143.359000", "141145.359000", "141147.359000", "141149.359000", "141151.359000", "141153.359000", "141155.859000", "141157.359000", "141200.359000", "141201.359000", "141203.359000", "141205.359000", "141207.359000", "141209.859000", "141211.359000", "141213.359000", "141215.359000", "141217.359000", "141219.359000", "141221.859000", "141223.859000", "141225.359000", "141227.359000", "141229.359000", "141231.359000", "141233.859000", "141235.359000", "141237.359000", "141239.359000", "141241.359000", "141243.359000", "141245.359000", "141247.359000", "141249.359000", "141251.359000", "141253.359000", "141255.359000", "141257.359000", "141259.359000", "141301.359000", "141303.359000", "141305.859000", "141307.859000", "141309.359000", "141311.359000", "141313.359000", "141315.359000", "141317.359000", "141319.359000", "141321.359000", "141323.359000", "141327.359000", "141327.375000", "141329.359000", "141331.359000", "141333.359000", "141335.359000", "141337.359000", "141339.359000", "141341.359000", "141343.359000", "141345.359000", "141347.359000", "141349.359000", "141352.359000", "141355.859000", "141355.875000", "141357.359000", "141359.359000", "141401.390000", "141403.375000", "141405.859000", "141407.359000", "141409.359000", "141411.359000", "141413.359000", "141415.359000", "141417.359000", "141419.359000", "141421.859000", "141423.359000", "141425.375000", "141427.359000", "141429.359000", "141431.875000", "141433.359000", "141435.359000", "141437.359000", "141439.359000", "141441.359000", "141443.359000", "141445.359000", "141447.359000", "141449.859000", "141451.859000", "141453.359000", "141455.359000", "141457.359000", "141459.359000", "141501.359000", "141503.359000", "141505.359000", "141507.359000", "141509.359000", "141511.359000", "141513.359000", "141515.359000", "141517.359000", "141519.359000", "141521.359000", "141523.359000", "141526.359000", "141527.359000", "141529.359000", "141531.359000", "141533.359000", "141535.359000", "141537.359000", "141539.359000", "141541.359000", "141543.359000", "141545.359000", "141547.359000", "141549.359000", "141551.359000", "141553.359000", "141555.359000", "141557.359000", "141559.359000", "141601.359000", "141603.359000", "141605.359000", "141607.359000", "141609.359000", "141611.359000", "141613.859000", "141615.359000", "141617.359000", "141619.359000", "141621.359000", "141623.859000", "141625.859000", "141627.359000", "141629.359000", "141631.359000", "141633.359000", "141635.359000", "141637.359000", "141639.359000", "141641.359000", "141643.859000", "141645.359000", "141647.359000", "141649.359000", "141651.390000", "141653.359000", "141655.359000", "141657.359000", "141659.359000", "141701.359000", "141703.359000", "141705.359000", "141707.359000", "141709.359000", "141711.359000", "141713.359000", "141715.859000", "141717.359000", "141719.359000", "141721.359000", "141723.359000", "141725.359000", "141727.359000", "141729.109000"],
      "InstanceCreationTime": ["141032.390000", "141033.359000", "141035.359000", "141037.359000", "141039.359000", "141041.859000", "141044.359000", "141045.359000", "141047.359000", "141049.859000", "141051.359000", "141053.359000", "141055.859000", "141057.859000", "141059.359000", "141101.359000", "141103.359000", "141105.359000", "141110.359000", "141110.375000", "141111.359000", "141113.359000", "141115.359000", "141117.359000", "141119.359000", "141121.359000", "141123.359000", "141125.359000", "141127.359000", "141129.359000", "141131.859000", "141133.359000", "141135.359000", "141138.859000", "141139.859000", "141141.359000", "141143.359000", "141145.359000", "141147.359000", "141149.359000", "141151.359000", "141153.359000", "141155.859000", "141157.359000", "141200.359000", "141201.359000", "141203.359000", "141205.359000", "141207.359000", "141209.859000", "141211.359000", "141213.359000", "141215.359000", "141217.359000", "141219.359000", "141221.859000", "141223.859000", "141225.359000", "141227.359000", "141229.359000", "141231.359000", "141233.859000", "141235.359000", "141237.359000", "141239.359000", "141241.359000", "141243.359000", "141245.359000", "141247.359000", "141249.359000", "141251.359000", "141253.359000", "141255.359000", "141257.359000", "141259.359000", "141301.359000", "141303.359000", "141305.859000", "141307.859000", "141309.359000", "141311.359000", "141313.359000", "141315.359000", "141317.359000", "141319.359000", "141321.359000", "141323.359000", "141327.359000", "141327.375000", "141329.359000", "141331.359000", "141333.359000", "141335.359000", "141337.359000", "141339.359000", "141341.359000", "141343.359000", "141345.359000", "141347.359000", "141349.359000", "141352.359000", "141355.859000", "141355.875000", "141357.359000", "141359.359000", "141401.390000", "141403.375000", "141405.859000", "141407.359000", "141409.359000", "141411.359000", "141413.359000", "141415.359000", "141417.359000", "141419.359000", "141421.859000", "141423.359000", "141425.375000", "141427.359000", "141429.359000", "141431.875000", "141433.359000", "141435.359000", "141437.359000", "141439.359000", "141441.359000", "141443.359000", "141445.359000", "141447.359000", "141449.859000", "141451.859000", "141453.359000", "141455.359000", "141457.359000", "141459.359000", "141501.359000", "141503.359000", "141505.359000", "141507.359000", "141509.359000", "141511.359000", "141513.359000", "141515.359000", "141517.359000", "141519.359000", "141521.359000", "141523.359000", "141526.359000", "141527.359000", "141529.359000", "141531.359000", "141533.359000", "141535.359000", "141537.359000", "141539.359000", "141541.359000", "141543.359000", "141545.359000", "141547.359000", "141549.359000", "141551.359000", "141553.359000", "141555.359000", "141557.359000", "141559.359000", "141601.359000", "141603.359000", "141605.359000", "141607.359000", "141609.359000", "141611.359000", "141613.859000", "141615.359000", "141617.359000", "141619.359000", "141621.359000", "141623.859000", "141625.859000", "141627.359000", "141629.359000", "141631.359000", "141633.359000", "141635.359000", "141637.359000", "141639.359000", "141641.359000", "141643.859000", "141645.359000", "141647.359000", "141649.359000", "141651.390000", "141653.359000", "141655.359000", "141657.359000", "141659.359000", "141701.359000", "141703.359000", "141705.359000", "141707.359000", "141709.359000", "141711.359000", "141713.359000", "141715.859000", "141717.359000", "141719.359000", "141721.359000", "141723.359000", "141725.359000", "141727.359000", "141729.109000"],
      "InstanceNumber": [1, 2, 3, 4, 5, 6, 7, 8, 9, 10, 11, 12, 13, 14, 15, 16, 17, 18, 19, 20, 21, 22, 23, 24, 25, 26, 27, 28, 29, 30, 31, 32, 33, 34, 35, 36, 37, 38, 39, 40, 41, 42, 43, 44, 45, 46, 47, 48, 49, 50, 51, 52, 53, 54, 55, 56, 57, 58, 59, 60, 61, 62, 63, 64, 65, 66, 67, 68, 69, 70, 71, 72, 73, 74, 75, 76, 77, 78, 79, 80, 81, 82, 83, 84, 85, 86, 87, 88, 89, 90, 91, 92, 93, 94, 95, 96, 97, 98, 99, 100, 101, 102, 103, 104, 105, 106, 107, 108, 109, 110, 111, 112, 113, 114, 115, 116, 117, 118, 119, 120, 121, 122, 123, 124, 125, 126, 127, 128, 129, 130, 131, 132, 133, 134, 135, 136, 137, 138, 139, 140, 141, 142, 143, 144, 145, 146, 147, 148, 149, 150, 151, 152, 153, 154, 155, 156, 157, 158, 159, 160, 161, 162, 163, 164, 165, 166, 167, 168, 169, 170, 171, 172, 173, 174, 175, 176, 177, 178, 179, 180, 181, 182, 183, 184, 185, 186, 187, 188, 189, 190, 191, 192, 193, 194, 195, 196, 197, 198, 199, 200, 201, 202, 203, 204, 205, 206, 207, 208, 209, 210],
      "LargestImagePixelValue": [2074, 2011, 1967, 1966, 1948, 1954, 1928, 1958, 1962, 1942, 1970, 1939, 1972, 1968, 1962, 1966, 1967, 1961, 1952, 1952, 1985, 1949, 1955, 1975, 1982, 1971, 1942, 1970, 1968, 1964, 1962, 1966, 1946, 1949, 1959, 1965, 1961, 1963, 1956, 1969, 1956, 1961, 1960, 1948, 1956, 1971, 1965, 1970, 1963, 1978, 1951, 1952, 1959, 1946, 1985, 1954, 1960, 1963, 1985, 1967, 1983, 1970, 1979, 1976, 1974, 1978, 1970, 1981, 1982, 1985, 1972, 1954, 1990, 1987, 1970, 1981, 1993, 1990, 1978, 1980, 1983, 1989, 1982, 2000, 1974, 1969, 1982, 1980, 1974, 1970, 2004, 1976, 1988, 2007, 1993, 1977, 1974, 1996, 1962, 1982, 1980, 1987, 1990, 2018, 1997, 2007, 1995, 2003, 1992, 1979, 2001, 1991, 1997, 1992, 1987, 1994, 1979, 1978, 1989, 2002, 1980, 1981, 1987, 1986, 1987, 2007, 2006, 1995, 1995, 1989, 1998, 2010, 2016, 1992, 1977, 1984, 1999, 2006, 1989, 1986, 1992, 1988, 2002, 2003, 2001, 2012, 1997, 2011, 1993, 1992, 1982, 1990, 2007, 2002, 1997, 1989, 1973, 1980, 2003, 2020, 2012, 1989, 2022, 2005, 1998, 2009, 2008, 2013, 1991, 1999, 2010, 2013, 2010, 2014, 1984, 1997, 2024, 2010, 2006, 2004, 2001, 1992, 2012, 2007, 2017, 2005, 2010, 2012, 2028, 1996, 2014, 2015, 1998, 2038, 2024, 2010, 2008, 1999, 2008, 2002, 2013, 2013, 2001, 2020, 1997, 2020, 2017, 1993, 2014, 1974],
      "WindowCenter": [763.0, 760.0, 759.0, 758.0, 758.0, 758.0, 758.0, 758.0, 757.0, 756.0, 756.0, 756.0, 756.0, 757.0, 757.0, 756.0, 757.0, 758.0, 758.0, 757.0, 756.0, 756.0, 756.0, 757.0, 759.0, 758.0, 756.0, 756.0, 757.0, 757.0, 758.0, 758.0, 757.0, 758.0, 758.0, 757.0, 757.0, 757.0, 756.0, 756.0, 757.0, 758.0, 758.0, 757.0, 757.0, 757.0, 757.0, 757.0, 757.0, 757.0, 757.0, 758.0, 758.0, 757.0, 757.0, 758.0, 757.0, 757.0, 758.0, 757.0, 757.0, 757.0, 757.0, 757.0, 757.0, 758.0, 757.0, 757.0, 757.0, 758.0, 760.0, 760.0, 759.0, 759.0, 760.0, 759.0, 758.0, 758.0, 759.0, 760.0, 759.0, 759.0, 759.0, 760.0, 759.0, 759.0, 759.0, 760.0, 760.0, 759.0, 758.0, 758.0, 758.0, 758.0, 758.0, 758.0, 758.0, 759.0, 759.0, 758.0, 758.0, 758.0, 757.0, 757.0, 759.0, 759.0, 759.0, 759.0, 759.0, 759.0, 760.0, 759.0, 759.0, 760.0, 761.0, 760.0, 760.0, 759.0, 759.0, 759.0, 758.0, 759.0, 759.0, 759.0, 759.0, 759.0, 758.0, 759.0, 759.0, 759.0, 760.0, 759.0, 759.0, 760.0, 760.0, 760.0, 759.0, 760.0, 760.0, 760.0, 760.0, 760.0, 759.0, 760.0, 761.0, 759.0, 758.0, 758.0, 759.0, 759.0, 759.0, 760.0, 761.0, 760.0, 760.0, 760.0, 761.0, 761.0, 761.0, 760.0, 760.0, 760.0, 761.0, 761.0, 760.0, 759.0, 759.0, 759.0, 760.0, 761.0, 761.0, 760.0, 760.0, 762.0, 762.0, 761.0, 761.0, 761.0, 762.0, 762.0, 760.0, 759.0, 760.0, 761.0, 761.0, 760.0, 761.0, 761.0, 762.0, 761.0, 762.0, 762.0, 761.0, 761.0, 760.0, 761.0, 761.0, 761.0, 761.0, 762.0, 762.0, 761.0, 761.0, 761.0, 760.0, 761.0, 761.0, 761.0, 762.0, 763.0],
      "WindowWidth": [1623.0, 1614.0, 1612.0, 1609.0, 1608.0, 1608.0, 1610.0, 1610.0, 1606.0, 1604.0, 1606.0, 1604.0, 1606.0, 1607.0, 1606.0, 1604.0, 1606.0, 1610.0, 1609.0, 1607.0, 1605.0, 1605.0, 1605.0, 1607.0, 1612.0, 1608.0, 1606.0, 1605.0, 1607.0, 1608.0, 1609.0, 1609.0, 1608.0, 1609.0, 1609.0, 1608.0, 1607.0, 1606.0, 1605.0, 1605.0, 1606.0, 1609.0, 1609.0, 1608.0, 1608.0, 1608.0, 1607.0, 1607.0, 1606.0, 1606.0, 1607.0, 1610.0, 1610.0, 1608.0, 1608.0, 1609.0, 1608.0, 1608.0, 1609.0, 1608.0, 1608.0, 1608.0, 1607.0, 1607.0, 1608.0, 1609.0, 1607.0, 1607.0, 1608.0, 1610.0, 1614.0, 1614.0, 1612.0, 1613.0, 1613.0, 1613.0, 1610.0, 1610.0, 1613.0, 1613.0, 1613.0, 1611.0, 1611.0, 1614.0, 1612.0, 1611.0, 1612.0, 1615.0, 1613.0, 1611.0, 1610.0, 1610.0, 1610.0, 1610.0, 1609.0, 1609.0, 1609.0, 1613.0, 1613.0, 1610.0, 1609.0, 1609.0, 1608.0, 1608.0, 1611.0, 1613.0, 1611.0, 1613.0, 1612.0, 1613.0, 1613.0, 1613.0, 1612.0, 1614.0, 1616.0, 1614.0, 1613.0, 1613.0, 1612.0, 1611.0, 1610.0, 1612.0, 1612.0, 1613.0, 1612.0, 1612.0, 1610.0, 1611.0, 1612.0, 1613.0, 1615.0, 1612.0, 1613.0, 1614.0, 1614.0, 1614.0, 1613.0, 1614.0, 1614.0, 1615.0, 1614.0, 1613.0, 1613.0, 1615.0, 1617.0, 1612.0, 1608.0, 1609.0, 1611.0, 1612.0, 1611.0, 1614.0, 1617.0, 1615.0, 1614.0, 1614.0, 1617.0, 1617.0, 1616.0, 1615.0, 1615.0, 1615.0, 1618.0, 1618.0, 1615.0, 1613.0, 1612.0, 1613.0, 1615.0, 1618.0, 1617.0, 1615.0, 1616.0, 1619.0, 1619.0, 1617.0, 1617.0, 1617.0, 1619.0, 1619.0, 1614.0, 1613.0, 1613.0, 1616.0, 1616.0, 1615.0, 1617.0, 1618.0, 1619.0, 1618.0, 1620.0, 1619.0, 1617.0, 1616.0, 1615.0, 1616.0, 1616.0, 1618.0, 1618.0, 1620.0, 1619.0, 1618.0, 1616.0, 1616.0, 1615.0, 1616.0, 1617.0, 1618.0, 1619.0, 1621.0]
    },
    "slices": {}
  }
}