{
  "AcquisitionMatrixPE": 64,
  "AcquisitionNumber": 1,
  "AcquisitionTime": "15:09:48.267500",
  "BandwidthPerPixelPhaseEncode": 30.637,
  "BaseResolution": 64,
  "BidsGuess": [
    "func",
    "_acq-epfid2_dir-AP_run-11_bold"
],
  "CoilCombinationMethod": "Sum of Squares",
  "CoilString": "C:HEA;HEP",
  "ConversionSoftware": "dcm2niix",
  "ConversionSoftwareVersion": "v1.0.20240202",
  "DerivedVendorReportedEchoSpacing": 0.000510004,
  "DeviceSerialNumber": "35119",
  "DwellTime": 3.5e-06,
  "EchoTime": 0.03,
  "EffectiveEchoSpacing": 0.000510004,
  "FlipAngle": 78,
  "HeudiconvVersion": "1.1.6",
  "ImageComments": "V",
  "ImageOrientationPatientDICOM": [0.999615, 0.009818, 0.025954, 0, 0.93532, -0.353803],
  "ImageOrientationText": "Tra>Cor(-20.7)>Sag(1.6)",
  "ImageType": [
    "ORIGINAL",
    "PRIMARY",
    "M",
    "ND",
    "MOSAIC"
],
  "ImagingFrequency": 123.251774,
  "InPlanePhaseEncodingDirectionDICOM": "COL",
  "InstitutionAddress": "Chaucer Road  15,Cambridge,UK,GB,CB2 2EF",
  "InstitutionName": "MRC-CBU",
  "MRAcquisitionType": "2D",
  "MagneticFieldStrength": 3,
  "Manufacturer": "Siemens",
  "ManufacturersModelName": "TrioTim",
  "MatrixCoilMode": "SENSE",
  "Modality": "MR",
  "NonlinearGradientCorrection": false,
  "PartialFourier": 1,
  "PatientPosition": "HFS",
  "PercentPhaseFOV": 100,
  "PercentSampling": 100,
  "PhaseEncodingDirection": "j-",
  "PhaseEncodingSteps": 64,
  "PhaseResolution": 1,
  "PixelBandwidth": 2230,
  "ProcedureStepDescription": "CBU^Neuroimaging",
  "ProtocolName": "CBU_DWEPI_BOLD210",
  "PulseSequenceDetails": "%SiemensSeq%\\ep2d_bold",
  "ReceiveCoilName": "HeadMatrix",
  "ReconMatrixPE": 64,
  "RepetitionTime": 2,
  "SAR": 0.141173,
  "ScanOptions": "FS",
  "ScanningSequence": "EP",
  "SequenceName": "*epfid2d1_64",
  "SequenceVariant": "SK",
  "SeriesDescription": "CBU_DWEPI_BOLD210",
  "SeriesNumber": 11,
  "ShimSetting": [-7807, -8728, -2069, 670, 276, 297, -261, 4],
  "SliceThickness": 3,
  "SliceTiming": [0, 1.0325, 0.06, 1.095, 0.12, 1.155, 0.1825, 1.215, 0.2425, 1.2775, 0.3025, 1.3375, 0.365, 1.3975, 0.425, 1.46, 0.485, 1.52, 0.5475, 1.58, 0.6075, 1.6425, 0.6675, 1.7025, 0.73, 1.7625, 0.79, 1.825, 0.85, 1.885, 0.9125, 1.945, 0.9725],
  "SoftwareVersions": "syngo MR B15",
  "SpacingBetweenSlices": 3.9,
  "StationName": "MRC35119",
  "TaskName": "faceprocessing",
  "TotalReadoutTime": 0.0321303,
  "TxRefAmp": 310.592,
  "dcmmeta_affine": [
    [-2.998845100402832, 0.0, 0.10822083801031113, 98.60254669189453],
    [-0.029454000294208527, 2.805959939956665, -1.3793004751205444, -57.23212432861328],
    [0.07786200195550919, 1.0614089965820312, 3.64634370803833, -71.4105224609375],
    [0.0, 0.0, 0.0, 1.0]
],
  "dcmmeta_reorient_transform": [
    [0.0, -1.0, 0.0, 63.0],
    [1.0, 0.0, 0.0, 0.0],
    [0.0, 0.0, 1.0, 0.0],
    [0.0, 0.0, 0.0, 1.0]
],
  "dcmmeta_shape": [64, 64, 33, 172],
  "dcmmeta_slice_dim": 2,
  "dcmmeta_version": 0.6,
  "global": {
    "const": {
      "AcquisitionMatrix": [64, 0, 0, 64],
      "AngioFlag": "N",
      "BitsAllocated": 16,
      "BitsStored": 12,
      "Columns": 384,
      "EchoNumbers": 1,
      "EchoTime": 30.0,
      "EchoTrainLength": 1,
      "FlipAngle": 78.0,
      "HighBit": 11,
      "ImageOrientationPatient": [0.999615, 0.009818, 0.025954, 0.0, 0.93532, -0.353803],
      "ImagePositionPatient": [-578.41775, -573.209596, 152.825764],
      "ImageType": [
        "ORIGINAL",
        "PRIMARY",
        "M",
        "ND",
        "MOSAIC"
],
      "ImagedNucleus": "1H",
      "ImagingFrequency": 123.251774,
      "InPlanePhaseEncodingDirection": "COL",
      "MRAcquisitionType": "2D",
      "MagneticFieldStrength": 3.0,
      "Manufacturer": "SIEMENS",
      "ManufacturerModelName": "TrioTim",
      "Modality": "MR",
      "NumberOfAverages": 1.0,
      "NumberOfPhaseEncodingSteps": 64,
      "PercentPhaseFieldOfView": 100.0,
      "PercentSampling": 100.0,
      "PerformedProcedureStepStartTime": "135928.531000",
      "PhotometricInterpretation": "MONOCHROME2",
      "PixelAspectRatio": [1, 1],
      "PixelBandwidth": 2230.0,
      "PixelRepresentation": 0,
      "PixelSpacing": [3.0, 3.0],
      "ProtocolName": "CBU_DWEPI_BOLD210",
      "RepetitionTime": 2000.0,
      "Rows": 384,
      "SAR": 0.141173,
      "SamplesPerPixel": 1,
      "ScanOptions": "FS",
      "ScanningSequence": "EP",
      "SequenceName": "*epfid2d1_64",
      "SequenceVariant": "SK",
      "SeriesDescription": "CBU_DWEPI_BOLD210",
      "SeriesNumber": 11,
      "SeriesTime": "150951.875000",
      "SliceLocation": -43.788955,
      "SliceThickness": 3.0,
      "SmallestImagePixelValue": 0,
      "SoftwareVersions": "syngo MR B15",
      "SpacingBetweenSlices": 3.9,
      "SpecificCharacterSet": "ISO_IR 100",
      "StudyID": "1",
      "StudyTime": "135928.468000",
      "TransmitCoilName": "Body",
      "VariableFlipAngleFlag": "N",
      "WindowCenterWidthExplanation": "Algo1",
      "dBdt": 0.0},
    "slices": {}
  },
  "time": {
    "samples": {
      "AcquisitionNumber": [1, 2, 3, 4, 5, 6, 7, 8, 9, 10, 11, 12, 13, 14, 15, 16, 17, 18, 19, 20, 21, 22, 23, 24, 25, 26, 27, 28, 29, 30, 31, 32, 33, 34, 35, 36, 37, 38, 39, 40, 41, 42, 43, 44, 45, 46, 47, 48, 49, 50, 51, 52, 53, 54, 55, 56, 57, 58, 59, 60, 61, 62, 63, 64, 65, 66, 67, 68, 69, 70, 71, 72, 73, 74, 75, 76, 77, 78, 79, 80, 81, 82, 83, 84, 85, 86, 87, 88, 89, 90, 91, 92, 93, 94, 95, 96, 97, 98, 99, 100, 101, 102, 103, 104, 105, 106, 107, 108, 109, 110, 111, 112, 113, 114, 115, 116, 117, 118, 119, 120, 121, 122, 123, 124, 125, 126, 127, 128, 129, 130, 131, 132, 133, 134, 135, 136, 137, 138, 139, 140, 141, 142, 143, 144, 145, 146, 147, 148, 149, 150, 151, 152, 153, 154, 155, 156, 157, 158, 159, 160, 161, 162, 163, 164, 165, 166, 167, 168, 169, 170, 171, 172],
      "AcquisitionTime": ["150948.267500", "150950.275000", "150952.282500", "150954.290000", "150956.300000", "150958.307500", "151000.315000", "151002.322500", "151004.332500", "151006.340000", "151008.347500", "151010.355000", "151012.362500", "151014.372500", "151016.380000", "151018.387500", "151020.395000", "151022.402500", "151024.412500", "151026.420000", "151028.427500", "151030.435000", "151032.442500", "151034.452500", "151036.460000", "151038.467500", "151040.475000", "151042.485000", "151044.492500", "151046.500000", "151048.507500", "151050.515000", "151052.525000", "151054.532500", "151056.540000", "151058.547500", "151100.555000", "151102.565000", "151104.572500", "151106.580000", "151108.587500", "151110.597500", "151112.605000", "151114.612500", "151116.620000", "151118.627500", "151120.637500", "151122.645000", "151124.652500", "151126.660000", "151128.667500", "151130.677500", "151132.685000", "151134.692500", "151136.700000", "151138.710000", "151140.717500", "151142.725000", "151144.732500", "151146.740000", "151148.750000", "151150.757500", "151152.765000", "151154.772500", "151156.780000", "151158.790000", "151200.797500", "151202.805000", "151204.812500", "151206.820000", "151208.830000", "151210.837500", "151212.845000", "151214.852500", "151216.862500", "151218.870000", "151220.877500", "151222.885000", "151224.892500", "151226.902500", "151228.910000", "151230.917500", "151232.925000", "151234.932500", "151236.942500", "151238.950000", "151240.957500", "151242.965000", "151244.975000", "151246.982500", "151248.990000", "151250.997500", "151253.005000", "151255.015000", "151257.022500", "151259.030000", "151301.037500", "151303.045000", "151305.055000", "151307.062500", "151309.070000", "151311.077500", "151313.087500", "151315.095000", "151317.102500", "151319.110000", "151321.117500", "151323.127500", "151325.135000", "151327.142500", "151329.150000", "151331.157500", "151333.167500", "151335.175000", "151337.182500", "151339.190000", "151341.200000", "151343.207500", "151345.215000", "151347.222500", "151349.230000", "151351.240000", "151353.247500", "151355.255000", "151357.262500", "151359.270000", "151401.280000", "151403.287500", "151405.295000", "151407.302500", "151409.310000", "151411.320000", "151413.327500", "151415.335000", "151417.342500", "151419.352500", "151421.360000", "151423.367500", "151425.375000", "151427.382500", "151429.392500", "151431.400000", "151433.407500", "151435.415000", "151437.422500", "151439.432500", "151441.440000", "151443.447500", "151445.455000", "151447.465000", "151449.472500", "151451.480000", "151453.487500", "151455.495000", "151457.505000", "151459.512500", "151501.520000", "151503.527500", "151505.535000", "151507.545000", "151509.552500", "151511.560000", "151513.567500", "151515.577500", "151517.585000", "151519.592500", "151521.600000", "151523.607500", "151525.617500", "151527.625000", "151529.632500", "151531.640000"],
      "ContentTime": ["150951.890000", "150953.875000", "150955.875000", "150957.875000", "150959.875000", "151001.875000", "151003.875000", "151005.875000", "151007.875000", "151009.875000", "151011.875000", "151013.875000", "151015.875000", "151017.875000", "151019.875000", "151021.375000", "151023.875000", "151025.875000", "151027.875000", "151029.875000", "151031.875000", "151033.875000", "151035.875000", "151037.875000", "151039.875000", "151041.875000", "151043.875000", "151045.875000", "151047.875000", "151049.875000", "151051.875000", "151053.375000", "151055.875000", "151057.875000", "151059.875000", "151101.875000", "151103.875000", "151105.875000", "151107.875000", "151109.875000", "151111.875000", "151113.375000", "151115.875000", "151117.875000", "151119.875000", "151121.875000", "151123.875000", "151125.375000", "151127.875000", "151129.875000", "151131.875000", "151133.875000", "151135.875000", "151137.875000", "151139.875000", "151141.875000", "151143.875000", "151145.875000", "151147.875000", "151149.875000", "151151.875000", "151153.875000", "151155.375000", "151157.875000", "151159.875000", "151201.875000", "151203.875000", "151205.875000", "151207.875000", "151209.875000", "151211.875000", "151213.875000", "151215.875000", "151217.375000", "151219.875000", "151221.875000", "151223.875000", "151225.875000", "151227.875000", "151229.375000", "151231.875000", "151233.875000", "151235.875000", "151237.875000", "151239.875000", "151241.875000", "151243.875000", "151245.875000", "151247.875000", "151249.875000", "151251.875000", "151253.875000", "151255.875000", "151257.875000", "151259.875000", "151301.375000", "151303.875000", "151305.875000", "151307.875000", "151309.875000", "151311.875000", "151313.875000", "151315.875000", "151317.875000", "151319.875000", "151321.375000", "151323.875000", "151325.875000", "151327.875000", "151329.875000", "151331.875000", "151333.375000", "151335.875000", "151337.875000", "151339.875000", "151341.875000", "151343.875000", "151345.875000", "151347.875000", "151349.875000", "151351.875000", "151353.375000", "151355.875000", "151357.875000", "151359.875000", "151401.875000", "151403.875000", "151405.375000", "151407.875000", "151409.875000", "151411.875000", "151413.875000", "151415.875000", "151417.875000", "151419.875000", "151421.875000", "151423.875000", "151425.875000", "151427.875000", "151429.875000", "151431.875000", "151433.875000", "151435.875000", "151437.375000", "151439.875000", "151441.875000", "151443.875000", "151445.875000", "151447.875000", "151449.875000", "151451.875000", "151453.875000", "151455.875000", "151457.875000", "151459.875000", "151501.875000", "151503.875000", "151505.875000", "151507.875000", "151509.375000", "151511.875000", "151513.875000", "151515.875000", "151517.875000", "151519.875000", "151521.875000", "151523.875000", "151525.875000", "151527.875000", "151529.375000", "151531.875000", "151533.875000"],
      "InstanceCreationTime": ["150951.890000", "150953.875000", "150955.875000", "150957.875000", "150959.875000", "151001.875000", "151003.875000", "151005.875000", "151007.875000", "151009.875000", "151011.875000", "151013.875000", "151015.875000", "151017.875000", "151019.875000", "151021.375000", "151023.875000", "151025.875000", "151027.875000", "151029.875000", "151031.875000", "151033.875000", "151035.875000", "151037.875000", "151039.875000", "151041.875000", "151043.875000", "151045.875000", "151047.875000", "151049.875000", "151051.875000", "151053.375000", "151055.875000", "151057.875000", "151059.875000", "151101.875000", "151103.875000", "151105.875000", "151107.875000", "151109.875000", "151111.875000", "151113.375000", "151115.875000", "151117.875000", "151119.875000", "151121.875000", "151123.875000", "151125.375000", "151127.875000", "151129.875000", "151131.875000", "151133.875000", "151135.875000", "151137.875000", "151139.875000", "151141.875000", "151143.875000", "151145.875000", "151147.875000", "151149.875000", "151151.875000", "151153.875000", "151155.375000", "151157.875000", "151159.875000", "151201.875000", "151203.875000", "151205.875000", "151207.875000", "151209.875000", "151211.875000", "151213.875000", "151215.875000", "151217.375000", "151219.875000", "151221.875000", "151223.875000", "151225.875000", "151227.875000", "151229.375000", "151231.875000", "151233.875000", "151235.875000", "151237.875000", "151239.875000", "151241.875000", "151243.875000", "151245.875000", "151247.875000", "151249.875000", "151251.875000", "151253.875000", "151255.875000", "151257.875000", "151259.875000", "151301.375000", "151303.875000", "151305.875000", "151307.875000", "151309.875000", "151311.875000", "151313.875000", "151315.875000", "151317.875000", "151319.875000", "151321.375000", "151323.875000", "151325.875000", "151327.875000", "151329.875000", "151331.875000", "151333.375000", "151335.875000", "151337.875000", "151339.875000", "151341.875000", "151343.875000", "151345.875000", "151347.875000", "151349.875000", "151351.875000", "151353.375000", "151355.875000", "151357.875000", "151359.875000", "151401.875000", "151403.875000", "151405.375000", "151407.875000", "151409.875000", "151411.875000", "151413.875000", "151415.875000", "151417.875000", "151419.875000", "151421.875000", "151423.875000", "151425.875000", "151427.875000", "151429.875000", "151431.875000", "151433.875000", "151435.875000", "151437.375000", "151439.875000", "151441.875000", "151443.875000", "151445.875000", "151447.875000", "151449.875000", "151451.875000", "151453.875000", "151455.875000", "151457.875000", "151459.875000", "151501.875000", "151503.875000", "151505.875000", "151507.875000", "151509.375000", "151511.875000", "151513.875000", "151515.875000", "151517.875000", "151519.875000", "151521.875000", "151523.875000", "151525.875000", "151527.875000", "151529.375000", "151531.875000", "151533.875000"],
      "InstanceNumber": [1, 2, 3, 4, 5, 6, 7, 8, 9, 10, 11, 12, 13, 14, 15, 16, 17, 18, 19, 20, 21, 22, 23, 24, 25, 26, 27, 28, 29, 30, 31, 32, 33, 34, 35, 36, 37, 38, 39, 40, 41, 42, 43, 44, 45, 46, 47, 48, 49, 50, 51, 52, 53, 54, 55, 56, 57, 58, 59, 60, 61, 62, 63, 64, 65, 66, 67, 68, 69, 70, 71, 72, 73, 74, 75, 76, 77, 78, 79, 80, 81, 82, 83, 84, 85, 86, 87, 88, 89, 90, 91, 92, 93, 94, 95, 96, 97, 98, 99, 100, 101, 102, 103, 104, 105, 106, 107, 108, 109, 110, 111, 112, 113, 114, 115, 116, 117, 118, 119, 120, 121, 122, 123, 124, 125, 126, 127, 128, 129, 130, 131, 132, 133, 134, 135, 136, 137, 138, 139, 140, 141, 142, 143, 144, 145, 146, 147, 148, 149, 150, 151, 152, 153, 154, 155, 156, 157, 158, 159, 160, 161, 162, 163, 164, 165, 166, 167, 168, 169, 170, 171, 172],
      "LargestImagePixelValue": [2180, 2156, 2033, 2057, 2044, 2020, 2039, 2049, 2037, 2024, 2030, 2043, 2035, 2019, 2023, 2017, 2025, 2031, 2016, 2025, 2027, 2033, 2023, 2015, 2017, 2141, 2266, 2109, 2093, 2095, 2122, 2145, 2117, 2157, 2132, 2140, 2135, 2137, 2119, 2099, 2097, 2113, 2092, 2088, 2100, 2093, 2095, 2081, 2064, 2064, 2061, 2049, 2038, 2048, 2057, 2044, 2025, 2052, 2046, 2036, 2056, 2028, 2048, 2051, 2052, 2079, 2064, 2070, 2040, 2040, 2071, 2050, 2021, 2061, 2062, 2063, 2058, 2062, 2045, 2052, 2073, 2043, 2055, 2046, 2052, 2066, 2045, 2080, 2064, 2064, 2039, 2048, 2065, 2052, 2049, 2058, 2040, 2057, 2052, 2042, 2067, 2027, 2053, 2079, 2081, 2064, 2068, 2051, 2041, 2054, 2063, 2040, 2033, 2039, 2056, 2035, 2052, 2057, 2046, 2040, 2055, 2037, 2036, 2046, 2026, 2056, 2039, 2044, 2039, 2032, 2033, 2051, 2058, 2056, 2049, 2032, 2047, 2028, 2033, 2035, 2051, 2034, 2063, 2028, 2019, 2017, 2042, 2024, 2033, 2031, 2031, 2013, 2028, 2043, 2050, 2040, 2040, 2045, 2033, 2046, 2017, 2031, 2045, 2052, 2045, 2043, 2044, 2046, 2042, 2058, 2042, 2055],
      "WindowCenter": [781.0, 778.0, 779.0, 777.0, 774.0, 773.0, 773.0, 774.0, 773.0, 775.0, 775.0, 774.0, 775.0, 776.0, 775.0, 774.0, 774.0, 775.0, 775.0, 774.0, 773.0, 771.0, 772.0, 772.0, 773.0, 774.0, 785.0, 774.0, 772.0, 769.0, 767.0, 766.0, 767.0, 766.0, 764.0, 764.0, 765.0, 767.0, 771.0, 771.0, 771.0, 771.0, 772.0, 772.0, 773.0, 773.0, 773.0, 774.0, 775.0, 775.0, 773.0, 774.0, 772.0, 772.0, 773.0, 773.0, 773.0, 774.0, 773.0, 773.0, 772.0, 773.0, 773.0, 772.0, 771.0, 770.0, 771.0, 772.0, 773.0, 772.0, 773.0, 774.0, 774.0, 773.0, 771.0, 771.0, 772.0, 773.0, 773.0, 773.0, 773.0, 773.0, 774.0, 773.0, 773.0, 773.0, 774.0, 774.0, 773.0, 773.0, 773.0, 774.0, 773.0, 773.0, 773.0, 773.0, 772.0, 772.0, 771.0, 771.0, 773.0, 773.0, 773.0, 772.0, 771.0, 770.0, 770.0, 771.0, 772.0, 771.0, 771.0, 772.0, 773.0, 774.0, 772.0, 770.0, 770.0, 769.0, 770.0, 771.0, 772.0, 772.0, 773.0, 773.0, 773.0, 773.0, 774.0, 774.0, 773.0, 772.0, 773.0, 772.0, 772.0, 774.0, 772.0, 771.0, 771.0, 773.0, 775.0, 774.0, 773.0, 772.0, 772.0, 772.0, 773.0, 772.0, 772.0, 774.0, 777.0, 777.0, 775.0, 776.0, 776.0, 776.0, 777.0, 777.0, 776.0, 776.0, 778.0, 778.0, 778.0, 777.0, 775.0, 774.0, 774.0, 772.0, 771.0, 770.0, 770.0, 771.0, 772.0, 773.0],
      "WindowWidth": [1670.0, 1662.0, 1663.0, 1657.0, 1651.0, 1649.0, 1649.0, 1650.0, 1650.0, 1653.0, 1654.0, 1652.0, 1654.0, 1656.0, 1653.0, 1650.0, 1650.0, 1654.0, 1654.0, 1652.0, 1647.0, 1644.0, 1646.0, 1647.0, 1649.0, 1653.0, 1685.0, 1650.0, 1644.0, 1638.0, 1632.0, 1632.0, 1633.0, 1630.0, 1626.0, 1626.0, 1627.0, 1634.0, 1642.0, 1644.0, 1642.0, 1644.0, 1648.0, 1647.0, 1648.0, 1650.0, 1649.0, 1650.0, 1654.0, 1654.0, 1650.0, 1652.0, 1646.0, 1647.0, 1649.0, 1648.0, 1649.0, 1650.0, 1649.0, 1648.0, 1647.0, 1649.0, 1648.0, 1645.0, 1643.0, 1640.0, 1644.0, 1646.0, 1647.0, 1647.0, 1648.0, 1651.0, 1650.0, 1648.0, 1644.0, 1644.0, 1645.0, 1648.0, 1648.0, 1648.0, 1649.0, 1649.0, 1650.0, 1649.0, 1648.0, 1647.0, 1650.0, 1650.0, 1649.0, 1648.0, 1649.0, 1650.0, 1648.0, 1648.0, 1648.0, 1649.0, 1646.0, 1645.0, 1644.0, 1644.0, 1647.0, 1649.0, 1649.0, 1645.0, 1642.0, 1640.0, 1640.0, 1644.0, 1646.0, 1644.0, 1643.0, 1646.0, 1648.0, 1651.0, 1645.0, 1641.0, 1641.0, 1639.0, 1641.0, 1643.0, 1644.0, 1646.0, 1648.0, 1647.0, 1647.0, 1648.0, 1650.0, 1651.0, 1648.0, 1646.0, 1648.0, 1646.0, 1644.0, 1651.0, 1646.0, 1644.0, 1644.0, 1649.0, 1654.0, 1651.0, 1647.0, 1644.0, 1647.0, 1645.0, 1647.0, 1645.0, 1646.0, 1651.0, 1660.0, 1658.0, 1654.0, 1656.0, 1656.0, 1657.0, 1658.0, 1659.0, 1655.0, 1656.0, 1660.0, 1661.0, 1661.0, 1659.0, 1653.0, 1651.0, 1652.0, 1646.0, 1642.0, 1640.0, 1642.0, 1643.0, 1647.0, 1648.0]
    },
    "slices": {}
  }
}