{
  "AcquisitionMatrixPE": 64,
  "AcquisitionNumber": 1,
  "AcquisitionTime": "09:59:27.857500",
  "BandwidthPerPixelPhaseEncode": 30.637,
  "BaseResolution": 64,
  "BidsGuess": [
    "func",
    "_acq-epfid2_dir-AP_run-3_bold"
],
  "CoilCombinationMethod": "Sum of Squares",
  "CoilString": "C:HEA;HEP",
  "ConversionSoftware": "dcm2niix",
  "ConversionSoftwareVersion": "v1.0.20240202",
  "DerivedVendorReportedEchoSpacing": 0.000510004,
  "DeviceSerialNumber": "35119",
  "DwellTime": 3.5e-06,
  "EchoTime": 0.03,
  "EffectiveEchoSpacing": 0.000510004,
  "FlipAngle": 78,
  "HeudiconvVersion": "1.1.6",
  "ImageComments": "V",
  "ImageOrientationPatientDICOM": [0.99996, 0.004146, 0.0079, 0, 0.885469, -0.464699],
  "ImageOrientationText": "Tra>Cor(-27.7)>Sag(0.5)",
  "ImageType": [
    "ORIGINAL",
    "PRIMARY",
    "M",
    "ND",
    "MOSAIC"
],
  "ImagingFrequency": 123.251775,
  "InPlanePhaseEncodingDirectionDICOM": "COL",
  "InstitutionAddress": "Chaucer Road  15,Cambridge,UK,GB,CB2 2EF",
  "InstitutionName": "MRC-CBU",
  "MRAcquisitionType": "2D",
  "MagneticFieldStrength": 3,
  "Manufacturer": "Siemens",
  "ManufacturersModelName": "TrioTim",
  "MatrixCoilMode": "SENSE",
  "Modality": "MR",
  "NonlinearGradientCorrection": false,
  "PartialFourier": 1,
  "PatientPosition": "HFS",
  "PercentPhaseFOV": 100,
  "PercentSampling": 100,
  "PhaseEncodingDirection": "j-",
  "PhaseEncodingSteps": 64,
  "PhaseResolution": 1,
  "PixelBandwidth": 2230,
  "ProcedureStepDescription": "CBU^Neuroimaging",
  "ProtocolName": "CBU_DWEPI_BOLD210",
  "PulseSequenceDetails": "%SiemensSeq%\\ep2d_bold",
  "ReceiveCoilName": "HeadMatrix",
  "ReconMatrixPE": 64,
  "RepetitionTime": 2,
  "SAR": 0.152383,
  "ScanOptions": "FS",
  "ScanningSequence": "EP",
  "SequenceName": "*epfid2d1_64",
  "SequenceVariant": "SK",
  "SeriesDescription": "CBU_DWEPI_BOLD210",
  "SeriesNumber": 3,
  "ShimSetting": [-7804, -8718, -2025, 813, 324, 454, 129, 9],
  "SliceThickness": 3,
  "SliceTiming": [0, 1.035, 0.06, 1.095, 0.1225, 1.155, 0.1825, 1.2175, 0.2425, 1.2775, 0.305, 1.3375, 0.365, 1.4, 0.425, 1.46, 0.4875, 1.52, 0.5475, 1.5825, 0.6075, 1.6425, 0.67, 1.7025, 0.73, 1.765, 0.79, 1.825, 0.8525, 1.885, 0.9125, 1.9475, 0.9725],
  "SoftwareVersions": "syngo MR B15",
  "SpacingBetweenSlices": 3.9,
  "StationName": "MRC35119",
  "TaskName": "faceprocessing",
  "TotalReadoutTime": 0.0321303,
  "TxRefAmp": 333.583,
  "dcmmeta_affine": [
    [-2.999880075454712, 0.0, 0.03479520231485367, 100.57645416259766],
    [-0.012438000179827213, 2.656407117843628, -1.8122535943984985, -47.336830139160156],
    [0.02370000071823597, 1.3940969705581665, 3.453191041946411, -82.5189208984375],
    [0.0, 0.0, 0.0, 1.0]
],
  "dcmmeta_reorient_transform": [
    [0.0, -1.0, 0.0, 63.0],
    [1.0, 0.0, 0.0, 0.0],
    [0.0, 0.0, 1.0, 0.0],
    [0.0, 0.0, 0.0, 1.0]
],
  "dcmmeta_shape": [64, 64, 33, 210],
  "dcmmeta_slice_dim": 2,
  "dcmmeta_version": 0.6,
  "global": {
    "const": {
      "AcquisitionMatrix": [64, 0, 0, 64],
      "AngioFlag": "N",
      "BitsAllocated": 16,
      "BitsStored": 12,
      "Columns": 384,
      "EchoNumbers": 1,
      "EchoTime": 30.0,
      "EchoTrainLength": 1,
      "FlipAngle": 78.0,
      "HighBit": 11,
      "ImageOrientationPatient": [0.99996, 0.004146, 0.0079, -0.0, 0.885469, -0.464699],
      "ImagePositionPatient": [-580.557254, -547.032012, 224.572707],
      "ImageType": [
        "ORIGINAL",
        "PRIMARY",
        "M",
        "ND",
        "MOSAIC"
],
      "ImagedNucleus": "1H",
      "ImagingFrequency": 123.251775,
      "InPlanePhaseEncodingDirection": "COL",
      "MRAcquisitionType": "2D",
      "MagneticFieldStrength": 3.0,
      "Manufacturer": "SIEMENS",
      "ManufacturerModelName": "TrioTim",
      "Modality": "MR",
      "NumberOfAverages": 1.0,
      "NumberOfPhaseEncodingSteps": 64,
      "PercentPhaseFieldOfView": 100.0,
      "PercentSampling": 100.0,
      "PerformedProcedureStepStartTime": "094337.531000",
      "PhotometricInterpretation": "MONOCHROME2",
      "PixelAspectRatio": [1, 1],
      "PixelBandwidth": 2230.0,
      "PixelRepresentation": 0,
      "PixelSpacing": [3.0, 3.0],
      "ProtocolName": "CBU_DWEPI_BOLD210",
      "RepetitionTime": 2000.0,
      "Rows": 384,
      "SAR": 0.152383,
      "SamplesPerPixel": 1,
      "ScanOptions": "FS",
      "ScanningSequence": "EP",
      "SequenceName": "*epfid2d1_64",
      "SequenceVariant": "SK",
      "SeriesDescription": "CBU_DWEPI_BOLD210",
      "SeriesNumber": 3,
      "SeriesTime": "095931.500000",
      "SliceLocation": -50.170833,
      "SliceThickness": 3.0,
      "SmallestImagePixelValue": 0,
      "SoftwareVersions": "syngo MR B15",
      "SpacingBetweenSlices": 3.9,
      "SpecificCharacterSet": "ISO_IR 100",
      "StudyID": "1",
      "StudyTime": "094337.468000",
      "TransmitCoilName": "Body",
      "VariableFlipAngleFlag": "N",
      "WindowCenterWidthExplanation": "Algo1",
      "dBdt": 0.0},
    "slices": {}
  },
  "time": {
    "samples": {
      "AcquisitionNumber": [1, 2, 3, 4, 5, 6, 7, 8, 9, 10, 11, 12, 13, 14, 15, 16, 17, 18, 19, 20, 21, 22, 23, 24, 25, 26, 27, 28, 29, 30, 31, 32, 33, 34, 35, 36, 37, 38, 39, 40, 41, 42, 43, 44, 45, 46, 47, 48, 49, 50, 51, 52, 53, 54, 55, 56, 57, 58, 59, 60, 61, 62, 63, 64, 65, 66, 67, 68, 69, 70, 71, 72, 73, 74, 75, 76, 77, 78, 79, 80, 81, 82, 83, 84, 85, 86, 87, 88, 89, 90, 91, 92, 93, 94, 95, 96, 97, 98, 99, 100, 101, 102, 103, 104, 105, 106, 107, 108, 109, 110, 111, 112, 113, 114, 115, 116, 117, 118, 119, 120, 121, 122, 123, 124, 125, 126, 127, 128, 129, 130, 131, 132, 133, 134, 135, 136, 137, 138, 139, 140, 141, 142, 143, 144, 145, 146, 147, 148, 149, 150, 151, 152, 153, 154, 155, 156, 157, 158, 159, 160, 161, 162, 163, 164, 165, 166, 167, 168, 169, 170, 171, 172, 173, 174, 175, 176, 177, 178, 179, 180, 181, 182, 183, 184, 185, 186, 187, 188, 189, 190, 191, 192, 193, 194, 195, 196, 197, 198, 199, 200, 201, 202, 203, 204, 205, 206, 207, 208, 209, 210],
      "AcquisitionTime": ["095927.857500", "095929.865000", "095931.875000", "095933.882500", "095935.890000", "095937.897500", "095939.905000", "095941.915000", "095943.922500", "095945.930000", "095947.937500", "095949.945000", "095951.955000", "095953.962500", "095955.970000", "095957.977500", "095959.985000", "100001.995000", "100004.002500", "100006.010000", "100008.017500", "100010.027500", "100012.035000", "100014.042500", "100016.050000", "100018.057500", "100020.067500", "100022.075000", "100024.082500", "100026.090000", "100028.097500", "100030.107500", "100032.115000", "100034.122500", "100036.130000", "100038.140000", "100040.147500", "100042.155000", "100044.162500", "100046.170000", "100048.180000", "100050.187500", "100052.195000", "100054.202500", "100056.210000", "100058.220000", "100100.227500", "100102.235000", "100104.242500", "100106.252500", "100108.260000", "100110.267500", "100112.275000", "100114.282500", "100116.292500", "100118.300000", "100120.307500", "100122.315000", "100124.322500", "100126.332500", "100128.340000", "100130.347500", "100132.355000", "100134.362500", "100136.372500", "100138.380000", "100140.387500", "100142.395000", "100144.405000", "100146.412500", "100148.420000", "100150.427500", "100152.435000", "100154.445000", "100156.452500", "100158.460000", "100200.467500", "100202.475000", "100204.485000", "100206.492500", "100208.500000", "100210.507500", "100212.517500", "100214.525000", "100216.532500", "100218.540000", "100220.547500", "100222.557500", "100224.565000", "100226.572500", "100228.580000", "100230.587500", "100232.597500", "100234.605000", "100236.612500", "100238.620000", "100240.630000", "100242.637500", "100244.645000", "100246.652500", "100248.660000", "100250.670000", "100252.677500", "100254.685000", "100256.692500", "100258.700000", "100300.710000", "100302.717500", "100304.725000", "100306.732500", "100308.742500", "100310.750000", "100312.757500", "100314.765000", "100316.772500", "100318.782500", "100320.790000", "100322.797500", "100324.805000", "100326.812500", "100328.822500", "100330.830000", "100332.837500", "100334.845000", "100336.852500", "100338.862500", "100340.870000", "100342.877500", "100344.885000", "100346.895000", "100348.902500", "100350.910000", "100352.917500", "100354.925000", "100356.935000", "100358.942500", "100400.950000", "100402.957500", "100404.965000", "100406.975000", "100408.982500", "100410.990000", "100412.997500", "100415.007500", "100417.015000", "100419.022500", "100421.030000", "100423.037500", "100425.047500", "100427.055000", "100429.062500", "100431.070000", "100433.077500", "100435.087500", "100437.095000", "100439.102500", "100441.110000", "100443.120000", "100445.127500", "100447.135000", "100449.142500", "100451.150000", "100453.160000", "100455.167500", "100457.175000", "100459.182500", "100501.190000", "100503.200000", "100505.207500", "100507.215000", "100509.222500", "100511.230000", "100513.240000", "100515.247500", "100517.255000", "100519.262500", "100521.272500", "100523.280000", "100525.287500", "100527.295000", "100529.302500", "100531.312500", "100533.320000", "100535.327500", "100537.335000", "100539.342500", "100541.352500", "100543.360000", "100545.367500", "100547.375000", "100549.385000", "100551.392500", "100553.400000", "100555.407500", "100557.415000", "100559.425000", "100601.432500", "100603.440000", "100605.447500", "100607.455000", "100609.465000", "100611.472500", "100613.480000", "100615.487500", "100617.497500", "100619.505000", "100621.512500", "100623.520000", "100625.527500", "100627.537500"],
      "ContentTime": ["095931.515000", "095933.000000", "095935.500000", "095937.000000", "095939.000000", "095941.000000", "095943.000000", "095945.000000", "095947.000000", "095949.000000", "095951.000000", "095953.000000", "095955.000000", "095957.000000", "095959.000000", "100001.000000", "100003.000000", "100005.000000", "100007.000000", "100009.000000", "100011.000000", "100013.000000", "100015.000000", "100017.000000", "100019.000000", "100021.000000", "100023.000000", "100025.000000", "100027.000000", "100029.500000", "100031.000000", "100033.000000", "100035.000000", "100037.000000", "100039.000000", "100041.000000", "100043.000000", "100045.000000", "100047.000000", "100049.000000", "100051.000000", "100053.000000", "100055.500000", "100057.500000", "100059.000000", "100101.000000", "100103.000000", "100105.000000", "100107.000000", "100109.000000", "100111.000000", "100113.000000", "100115.000000", "100117.000000", "100119.000000", "100121.000000", "100123.000000", "100125.000000", "100127.000000", "100129.000000", "100131.000000", "100133.000000", "100135.000000", "100137.000000", "100139.000000", "100141.000000", "100143.500000", "100145.000000", "100147.000000", "100149.000000", "100151.000000", "100153.500000", "100155.500000", "100157.000000", "100159.000000", "100201.000000", "100203.000000", "100205.000000", "100207.000000", "100209.000000", "100211.000000", "100213.000000", "100215.000000", "100217.000000", "100219.000000", "100221.000000", "100223.000000", "100225.000000", "100227.000000", "100229.000000", "100231.000000", "100233.000000", "100235.500000", "100237.000000", "100239.000000", "100241.000000", "100243.000000", "100245.000000", "100247.000000", "100249.000000", "100251.000000", "100253.000000", "100255.000000", "100257.000000", "100259.000000", "100301.000000", "100303.000000", "100305.000000", "100307.000000", "100309.000000", "100311.000000", "100313.000000", "100315.000000", "100317.000000", "100319.000000", "100321.000000", "100323.000000", "100325.000000", "100327.500000", "100329.500000", "100331.000000", "100333.000000", "100335.000000", "100337.000000", "100339.000000", "100341.000000", "100343.000000", "100345.000000", "100347.000000", "100349.000000", "100351.000000", "100353.000000", "100355.000000", "100357.000000", "100359.500000", "100401.000000", "100403.000000", "100405.000000", "100407.000000", "100409.000000", "100411.000000", "100413.000000", "100415.000000", "100417.000000", "100419.000000", "100421.500000", "100423.000000", "100425.000000", "100427.000000", "100429.000000", "100431.000000", "100433.000000", "100435.500000", "100437.000000", "100439.000000", "100441.000000", "100443.000000", "100445.000000", "100447.000000", "100449.000000", "100451.000000", "100453.000000", "100455.000000", "100457.000000", "100459.000000", "100501.000000", "100503.000000", "100505.500000", "100507.000000", "100509.000000", "100511.000000", "100513.500000", "100515.000000", "100517.500000", "100519.000000", "100521.000000", "100523.000000", "100525.000000", "100527.500000", "100529.000000", "100531.000000", "100533.000000", "100535.500000", "100537.000000", "100539.000000", "100541.000000", "100543.000000", "100545.000000", "100547.000000", "100549.000000", "100551.000000", "100553.000000", "100555.000000", "100557.000000", "100559.000000", "100601.000000", "100603.500000", "100605.000000", "100607.000000", "100609.500000", "100611.000000", "100613.000000", "100615.000000", "100617.000000", "100619.000000", "100621.000000", "100623.000000", "100625.000000", "100627.000000", "100629.000000"],
      "InstanceCreationTime": ["095931.515000", "095933.000000", "095935.500000", "095937.000000", "095939.000000", "095941.000000", "095943.000000", "095945.000000", "095947.000000", "095949.000000", "095951.000000", "095953.000000", "095955.000000", "095957.000000", "095959.000000", "100001.000000", "100003.000000", "100005.000000", "100007.000000", "100009.000000", "100011.000000", "100013.000000", "100015.000000", "100017.000000", "100019.000000", "100021.000000", "100023.000000", "100025.000000", "100027.000000", "100029.500000", "100031.000000", "100033.000000", "100035.000000", "100037.000000", "100039.000000", "100041.000000", "100043.000000", "100045.000000", "100047.000000", "100049.000000", "100051.000000", "100053.000000", "100055.500000", "100057.500000", "100059.000000", "100101.000000", "100103.000000", "100105.000000", "100107.000000", "100109.000000", "100111.000000", "100113.000000", "100115.000000", "100117.000000", "100119.000000", "100121.000000", "100123.000000", "100125.000000", "100127.000000", "100129.000000", "100131.000000", "100133.000000", "100135.000000", "100137.000000", "100139.000000", "100141.000000", "100143.500000", "100145.000000", "100147.000000", "100149.000000", "100151.000000", "100153.500000", "100155.500000", "100157.000000", "100159.000000", "100201.000000", "100203.000000", "100205.000000", "100207.000000", "100209.000000", "100211.000000", "100213.000000", "100215.000000", "100217.000000", "100219.000000", "100221.000000", "100223.000000", "100225.000000", "100227.000000", "100229.000000", "100231.000000", "100233.000000", "100235.500000", "100237.000000", "100239.000000", "100241.000000", "100243.000000", "100245.000000", "100247.000000", "100249.000000", "100251.000000", "100253.000000", "100255.000000", "100257.000000", "100259.000000", "100301.000000", "100303.000000", "100305.000000", "100307.000000", "100309.000000", "100311.000000", "100313.000000", "100315.000000", "100317.000000", "100319.000000", "100321.000000", "100323.000000", "100325.000000", "100327.500000", "100329.500000", "100331.000000", "100333.000000", "100335.000000", "100337.000000", "100339.000000", "100341.000000", "100343.000000", "100345.000000", "100347.000000", "100349.000000", "100351.000000", "100353.000000", "100355.000000", "100357.000000", "100359.500000", "100401.000000", "100403.000000", "100405.000000", "100407.000000", "100409.000000", "100411.000000", "100413.000000", "100415.000000", "100417.000000", "100419.000000", "100421.500000", "100423.000000", "100425.000000", "100427.000000", "100429.000000", "100431.000000", "100433.000000", "100435.500000", "100437.000000", "100439.000000", "100441.000000", "100443.000000", "100445.000000", "100447.000000", "100449.000000", "100451.000000", "100453.000000", "100455.000000", "100457.000000", "100459.000000", "100501.000000", "100503.000000", "100505.500000", "100507.000000", "100509.000000", "100511.000000", "100513.500000", "100515.000000", "100517.500000", "100519.000000", "100521.000000", "100523.000000", "100525.000000", "100527.500000", "100529.000000", "100531.000000", "100533.000000", "100535.500000", "100537.000000", "100539.000000", "100541.000000", "100543.000000", "100545.000000", "100547.000000", "100549.000000", "100551.000000", "100553.000000", "100555.000000", "100557.000000", "100559.000000", "100601.000000", "100603.500000", "100605.000000", "100607.000000", "100609.500000", "100611.000000", "100613.000000", "100615.000000", "100617.000000", "100619.000000", "100621.000000", "100623.000000", "100625.000000", "100627.000000", "100629.000000"],
      "InstanceNumber": [1, 2, 3, 4, 5, 6, 7, 8, 9, 10, 11, 12, 13, 14, 15, 16, 17, 18, 19, 20, 21, 22, 23, 24, 25, 26, 27, 28, 29, 30, 31, 32, 33, 34, 35, 36, 37, 38, 39, 40, 41, 42, 43, 44, 45, 46, 47, 48, 49, 50, 51, 52, 53, 54, 55, 56, 57, 58, 59, 60, 61, 62, 63, 64, 65, 66, 67, 68, 69, 70, 71, 72, 73, 74, 75, 76, 77, 78, 79, 80, 81, 82, 83, 84, 85, 86, 87, 88, 89, 90, 91, 92, 93, 94, 95, 96, 97, 98, 99, 100, 101, 102, 103, 104, 105, 106, 107, 108, 109, 110, 111, 112, 113, 114, 115, 116, 117, 118, 119, 120, 121, 122, 123, 124, 125, 126, 127, 128, 129, 130, 131, 132, 133, 134, 135, 136, 137, 138, 139, 140, 141, 142, 143, 144, 145, 146, 147, 148, 149, 150, 151, 152, 153, 154, 155, 156, 157, 158, 159, 160, 161, 162, 163, 164, 165, 166, 167, 168, 169, 170, 171, 172, 173, 174, 175, 176, 177, 178, 179, 180, 181, 182, 183, 184, 185, 186, 187, 188, 189, 190, 191, 192, 193, 194, 195, 196, 197, 198, 199, 200, 201, 202, 203, 204, 205, 206, 207, 208, 209, 210],
      "LargestImagePixelValue": [1893, 1802, 1785, 1792, 1775, 1794, 1776, 1782, 1754, 1746, 1767, 1768, 1770, 1769, 1784, 1758, 1754, 1760, 1766, 1767, 1747, 1754, 1795, 1752, 1743, 1761, 1758, 1790, 1786, 1774, 1754, 1764, 1760, 1764, 1768, 1761, 1770, 1787, 1779, 1771, 1764, 1777, 1769, 1774, 1763, 1758, 1780, 1760, 1772, 1753, 1765, 1758, 1757, 1755, 1757, 1756, 1766, 1759, 1788, 1767, 1780, 1903, 1768, 1778, 1778, 1772, 1769, 1773, 1769, 1783, 1775, 1780, 1789, 1771, 1768, 1783, 1769, 1789, 1792, 1776, 1799, 1803, 1801, 1774, 1774, 1793, 1797, 1795, 1787, 1790, 1786, 1795, 1809, 1791, 1803, 1787, 1791, 1798, 1806, 1786, 1782, 1794, 1808, 1798, 1778, 1782, 1786, 1791, 1776, 1791, 1809, 1804, 1796, 1793, 1800, 1795, 1807, 1803, 1808, 1803, 1799, 1777, 1781, 1803, 1839, 1805, 1795, 1787, 1833, 1795, 1781, 1802, 1822, 1798, 1773, 1767, 1801, 1790, 1802, 1788, 1791, 1784, 1791, 1785, 1795, 1794, 1823, 1782, 1792, 1799, 1787, 1804, 1801, 1781, 1807, 1772, 1775, 1790, 1817, 1777, 1792, 1886, 1782, 1796, 1802, 1797, 1811, 1813, 1783, 1780, 1791, 1779, 1769, 1801, 1799, 1795, 1795, 1796, 1774, 1787, 1797, 1775, 1807, 1772, 1777, 1781, 1778, 1825, 1819, 1786, 1813, 1809, 1780, 1790, 1802, 1815, 1803, 1786, 1796, 1772, 1801, 1787, 1864, 1781, 1789, 1797, 1779, 1771, 1761, 1756],
      "WindowCenter": [749.0, 744.0, 743.0, 744.0, 746.0, 745.0, 744.0, 744.0, 744.0, 744.0, 745.0, 745.0, 745.0, 744.0, 744.0, 746.0, 746.0, 746.0, 746.0, 746.0, 746.0, 745.0, 745.0, 745.0, 744.0, 744.0, 744.0, 745.0, 746.0, 747.0, 746.0, 745.0, 744.0, 745.0, 746.0, 747.0, 747.0, 746.0, 745.0, 745.0, 745.0, 745.0, 745.0, 744.0, 744.0, 745.0, 745.0, 746.0, 746.0, 746.0, 745.0, 745.0, 746.0, 746.0, 746.0, 746.0, 746.0, 746.0, 747.0, 749.0, 748.0, 747.0, 745.0, 744.0, 746.0, 748.0, 748.0, 748.0, 746.0, 745.0, 745.0, 747.0, 747.0, 747.0, 746.0, 746.0, 746.0, 747.0, 747.0, 747.0, 746.0, 746.0, 746.0, 746.0, 746.0, 745.0, 745.0, 746.0, 746.0, 747.0, 747.0, 746.0, 745.0, 745.0, 746.0, 748.0, 748.0, 747.0, 745.0, 744.0, 744.0, 746.0, 747.0, 748.0, 747.0, 746.0, 746.0, 746.0, 747.0, 747.0, 747.0, 746.0, 745.0, 745.0, 746.0, 747.0, 747.0, 746.0, 746.0, 746.0, 746.0, 746.0, 746.0, 747.0, 748.0, 747.0, 746.0, 745.0, 744.0, 745.0, 747.0, 748.0, 749.0, 747.0, 746.0, 744.0, 745.0, 745.0, 746.0, 747.0, 747.0, 746.0, 746.0, 746.0, 747.0, 747.0, 748.0, 747.0, 746.0, 746.0, 747.0, 748.0, 748.0, 747.0, 747.0, 747.0, 748.0, 749.0, 748.0, 746.0, 745.0, 745.0, 745.0, 746.0, 747.0, 747.0, 747.0, 747.0, 747.0, 747.0, 746.0, 746.0, 746.0, 748.0, 748.0, 748.0, 747.0, 746.0, 746.0, 746.0, 747.0, 747.0, 747.0, 746.0, 746.0, 746.0, 747.0, 750.0, 749.0, 747.0, 747.0, 747.0, 747.0, 749.0, 750.0, 750.0, 749.0, 748.0, 747.0, 747.0, 749.0, 748.0, 747.0, 746.0, 745.0, 746.0, 748.0, 749.0, 748.0, 747.0],
      "WindowWidth": [1570.0, 1558.0, 1555.0, 1558.0, 1561.0, 1560.0, 1557.0, 1556.0, 1557.0, 1557.0, 1560.0, 1560.0, 1559.0, 1558.0, 1558.0, 1561.0, 1563.0, 1562.0, 1562.0, 1561.0, 1561.0, 1561.0, 1560.0, 1559.0, 1558.0, 1557.0, 1558.0, 1560.0, 1562.0, 1564.0, 1562.0, 1560.0, 1557.0, 1559.0, 1563.0, 1564.0, 1563.0, 1561.0, 1559.0, 1559.0, 1559.0, 1560.0, 1559.0, 1558.0, 1557.0, 1559.0, 1560.0, 1562.0, 1562.0, 1561.0, 1560.0, 1560.0, 1561.0, 1561.0, 1561.0, 1562.0, 1562.0, 1561.0, 1565.0, 1568.0, 1566.0, 1563.0, 1559.0, 1558.0, 1563.0, 1567.0, 1566.0, 1565.0, 1561.0, 1559.0, 1561.0, 1564.0, 1565.0, 1563.0, 1561.0, 1561.0, 1562.0, 1565.0, 1565.0, 1563.0, 1562.0, 1562.0, 1563.0, 1563.0, 1561.0, 1560.0, 1560.0, 1561.0, 1563.0, 1563.0, 1564.0, 1562.0, 1560.0, 1559.0, 1561.0, 1566.0, 1566.0, 1563.0, 1560.0, 1556.0, 1557.0, 1561.0, 1565.0, 1567.0, 1564.0, 1563.0, 1561.0, 1561.0, 1563.0, 1563.0, 1563.0, 1561.0, 1559.0, 1560.0, 1563.0, 1563.0, 1564.0, 1562.0, 1561.0, 1562.0, 1562.0, 1562.0, 1561.0, 1563.0, 1567.0, 1564.0, 1561.0, 1559.0, 1557.0, 1559.0, 1563.0, 1568.0, 1568.0, 1565.0, 1561.0, 1558.0, 1559.0, 1560.0, 1562.0, 1563.0, 1564.0, 1563.0, 1561.0, 1562.0, 1563.0, 1565.0, 1565.0, 1563.0, 1563.0, 1562.0, 1565.0, 1567.0, 1567.0, 1565.0, 1564.0, 1564.0, 1567.0, 1568.0, 1566.0, 1562.0, 1559.0, 1560.0, 1558.0, 1562.0, 1564.0, 1564.0, 1563.0, 1564.0, 1565.0, 1564.0, 1562.0, 1561.0, 1562.0, 1565.0, 1567.0, 1566.0, 1564.0, 1562.0, 1561.0, 1562.0, 1564.0, 1563.0, 1563.0, 1563.0, 1561.0, 1562.0, 1564.0, 1571.0, 1569.0, 1565.0, 1564.0, 1563.0, 1564.0, 1568.0, 1571.0, 1571.0, 1568.0, 1566.0, 1565.0, 1565.0, 1568.0, 1566.0, 1565.0, 1561.0, 1560.0, 1562.0, 1566.0, 1567.0, 1567.0, 1564.0]
    },
    "slices": {}
  }
}