{
  "AcquisitionMatrixPE": 64,
  "AcquisitionNumber": 1,
  "AcquisitionTime": "10:44:40.272500",
  "BandwidthPerPixelPhaseEncode": 30.637,
  "BaseResolution": 64,
  "BidsGuess": [
    "func",
    "_acq-epfid2_dir-AP_run-9_bold"
],
  "CoilCombinationMethod": "Sum of Squares",
  "CoilString": "C:HEA;HEP",
  "ConversionSoftware": "dcm2niix",
  "ConversionSoftwareVersion": "v1.0.20240202",
  "DerivedVendorReportedEchoSpacing": 0.000510004,
  "DeviceSerialNumber": "35119",
  "DwellTime": 3.5e-06,
  "EchoTime": 0.03,
  "EffectiveEchoSpacing": 0.000510004,
  "FlipAngle": 78,
  "HeudiconvVersion": "1.1.6",
  "ImageComments": "V",
  "ImageOrientationPatientDICOM": [0.99996, 0.004146, 0.0079, 0, 0.885469, -0.464699],
  "ImageOrientationText": "Tra>Cor(-27.7)>Sag(0.5)",
  "ImageType": [
    "ORIGINAL",
    "PRIMARY",
    "M",
    "ND",
    "MOSAIC"
],
  "ImagingFrequency": 123.251781,
  "InPlanePhaseEncodingDirectionDICOM": "COL",
  "InstitutionAddress": "Chaucer Road  15,Cambridge,UK,GB,CB2 2EF",
  "InstitutionName": "MRC-CBU",
  "MRAcquisitionType": "2D",
  "MagneticFieldStrength": 3,
  "Manufacturer": "Siemens",
  "ManufacturersModelName": "TrioTim",
  "MatrixCoilMode": "SENSE",
  "Modality": "MR",
  "NonlinearGradientCorrection": false,
  "PartialFourier": 1,
  "PatientPosition": "HFS",
  "PercentPhaseFOV": 100,
  "PercentSampling": 100,
  "PhaseEncodingDirection": "j-",
  "PhaseEncodingSteps": 64,
  "PhaseResolution": 1,
  "PixelBandwidth": 2230,
  "ProcedureStepDescription": "CBU^Neuroimaging",
  "ProtocolName": "CBU_DWEPI_BOLD210",
  "PulseSequenceDetails": "%SiemensSeq%\\ep2d_bold",
  "ReceiveCoilName": "HeadMatrix",
  "ReconMatrixPE": 64,
  "RepetitionTime": 2,
  "SAR": 0.152383,
  "ScanOptions": "FS",
  "ScanningSequence": "EP",
  "SequenceName": "*epfid2d1_64",
  "SequenceVariant": "SK",
  "SeriesDescription": "CBU_DWEPI_BOLD210",
  "SeriesNumber": 9,
  "ShimSetting": [-7804, -8718, -2025, 813, 324, 454, 129, 9],
  "SliceThickness": 3,
  "SliceTiming": [0, 1.035, 0.0625, 1.095, 0.1225, 1.1575, 0.1825, 1.2175, 0.245, 1.2775, 0.305, 1.34, 0.365, 1.4, 0.4275, 1.46, 0.4875, 1.5225, 0.5475, 1.5825, 0.61, 1.6425, 0.67, 1.705, 0.73, 1.765, 0.7925, 1.825, 0.8525, 1.8875, 0.9125, 1.9475, 0.975],
  "SoftwareVersions": "syngo MR B15",
  "SpacingBetweenSlices": 3.9,
  "StationName": "MRC35119",
  "TaskName": "faceprocessing",
  "TotalReadoutTime": 0.0321303,
  "TxRefAmp": 333.583,
  "dcmmeta_affine": [
    [-2.999880075454712, 0.0, 0.03479520231485367, 100.57645416259766],
    [-0.012438000179827213, 2.656407117843628, -1.8122535943984985, -47.336830139160156],
    [0.02370000071823597, 1.3940969705581665, 3.453191041946411, -82.5189208984375],
    [0.0, 0.0, 0.0, 1.0]
],
  "dcmmeta_reorient_transform": [
    [0.0, -1.0, 0.0, 63.0],
    [1.0, 0.0, 0.0, 0.0],
    [0.0, 0.0, 1.0, 0.0],
    [0.0, 0.0, 0.0, 1.0]
],
  "dcmmeta_shape": [64, 64, 33, 210],
  "dcmmeta_slice_dim": 2,
  "dcmmeta_version": 0.6,
  "global": {
    "const": {
      "AcquisitionMatrix": [64, 0, 0, 64],
      "AngioFlag": "N",
      "BitsAllocated": 16,
      "BitsStored": 12,
      "Columns": 384,
      "EchoNumbers": 1,
      "EchoTime": 30.0,
      "EchoTrainLength": 1,
      "FlipAngle": 78.0,
      "HighBit": 11,
      "ImageOrientationPatient": [0.99996, 0.004146, 0.0079, -0.0, 0.885469, -0.464699],
      "ImagePositionPatient": [-580.557254, -547.032012, 224.572707],
      "ImageType": [
        "ORIGINAL",
        "PRIMARY",
        "M",
        "ND",
        "MOSAIC"
],
      "ImagedNucleus": "1H",
      "ImagingFrequency": 123.251781,
      "InPlanePhaseEncodingDirection": "COL",
      "MRAcquisitionType": "2D",
      "MagneticFieldStrength": 3.0,
      "Manufacturer": "SIEMENS",
      "ManufacturerModelName": "TrioTim",
      "Modality": "MR",
      "NumberOfAverages": 1.0,
      "NumberOfPhaseEncodingSteps": 64,
      "PercentPhaseFieldOfView": 100.0,
      "PercentSampling": 100.0,
      "PerformedProcedureStepStartTime": "094337.531000",
      "PhotometricInterpretation": "MONOCHROME2",
      "PixelAspectRatio": [1, 1],
      "PixelBandwidth": 2230.0,
      "PixelRepresentation": 0,
      "PixelSpacing": [3.0, 3.0],
      "ProtocolName": "CBU_DWEPI_BOLD210",
      "RepetitionTime": 2000.0,
      "Rows": 384,
      "SAR": 0.152383,
      "SamplesPerPixel": 1,
      "ScanOptions": "FS",
      "ScanningSequence": "EP",
      "SequenceName": "*epfid2d1_64",
      "SequenceVariant": "SK",
      "SeriesDescription": "CBU_DWEPI_BOLD210",
      "SeriesNumber": 9,
      "SeriesTime": "104444.375000",
      "SliceLocation": -50.170833,
      "SliceThickness": 3.0,
      "SmallestImagePixelValue": 0,
      "SoftwareVersions": "syngo MR B15",
      "SpacingBetweenSlices": 3.9,
      "SpecificCharacterSet": "ISO_IR 100",
      "StudyID": "1",
      "StudyTime": "094337.468000",
      "TransmitCoilName": "Body",
      "VariableFlipAngleFlag": "N",
      "WindowCenterWidthExplanation": "Algo1",
      "dBdt": 0.0},
    "slices": {}
  },
  "time": {
    "samples": {
      "AcquisitionNumber": [1, 2, 3, 4, 5, 6, 7, 8, 9, 10, 11, 12, 13, 14, 15, 16, 17, 18, 19, 20, 21, 22, 23, 24, 25, 26, 27, 28, 29, 30, 31, 32, 33, 34, 35, 36, 37, 38, 39, 40, 41, 42, 43, 44, 45, 46, 47, 48, 49, 50, 51, 52, 53, 54, 55, 56, 57, 58, 59, 60, 61, 62, 63, 64, 65, 66, 67, 68, 69, 70, 71, 72, 73, 74, 75, 76, 77, 78, 79, 80, 81, 82, 83, 84, 85, 86, 87, 88, 89, 90, 91, 92, 93, 94, 95, 96, 97, 98, 99, 100, 101, 102, 103, 104, 105, 106, 107, 108, 109, 110, 111, 112, 113, 114, 115, 116, 117, 118, 119, 120, 121, 122, 123, 124, 125, 126, 127, 128, 129, 130, 131, 132, 133, 134, 135, 136, 137, 138, 139, 140, 141, 142, 143, 144, 145, 146, 147, 148, 149, 150, 151, 152, 153, 154, 155, 156, 157, 158, 159, 160, 161, 162, 163, 164, 165, 166, 167, 168, 169, 170, 171, 172, 173, 174, 175, 176, 177, 178, 179, 180, 181, 182, 183, 184, 185, 186, 187, 188, 189, 190, 191, 192, 193, 194, 195, 196, 197, 198, 199, 200, 201, 202, 203, 204, 205, 206, 207, 208, 209, 210],
      "AcquisitionTime": ["104440.272500", "104442.280000", "104444.290000", "104446.297500", "104448.305000", "104450.312500", "104452.320000", "104454.330000", "104456.337500", "104458.345000", "104500.352500", "104502.362500", "104504.370000", "104506.377500", "104508.385000", "104510.392500", "104512.402500", "104514.410000", "104516.417500", "104518.425000", "104520.432500", "104522.442500", "104524.450000", "104526.457500", "104528.465000", "104530.475000", "104532.482500", "104534.490000", "104536.497500", "104538.505000", "104540.515000", "104542.522500", "104544.530000", "104546.537500", "104548.545000", "104550.555000", "104552.562500", "104554.570000", "104556.577500", "104558.585000", "104600.595000", "104602.602500", "104604.610000", "104606.617500", "104608.627500", "104610.635000", "104612.642500", "104614.650000", "104616.657500", "104618.667500", "104620.675000", "104622.682500", "104624.690000", "104626.697500", "104628.707500", "104630.715000", "104632.722500", "104634.730000", "104636.740000", "104638.747500", "104640.755000", "104642.762500", "104644.770000", "104646.780000", "104648.787500", "104650.795000", "104652.802500", "104654.810000", "104656.820000", "104658.827500", "104700.835000", "104702.842500", "104704.852500", "104706.860000", "104708.867500", "104710.875000", "104712.882500", "104714.892500", "104716.900000", "104718.907500", "104720.915000", "104722.922500", "104724.932500", "104726.940000", "104728.947500", "104730.955000", "104732.962500", "104734.972500", "104736.980000", "104738.987500", "104740.995000", "104743.005000", "104745.012500", "104747.020000", "104749.027500", "104751.035000", "104753.045000", "104755.052500", "104757.060000", "104759.067500", "104801.075000", "104803.085000", "104805.092500", "104807.100000", "104809.107500", "104811.117500", "104813.125000", "104815.132500", "104817.140000", "104819.147500", "104821.157500", "104823.165000", "104825.172500", "104827.180000", "104829.187500", "104831.197500", "104833.205000", "104835.212500", "104837.220000", "104839.230000", "104841.237500", "104843.245000", "104845.252500", "104847.260000", "104849.270000", "104851.277500", "104853.285000", "104855.292500", "104857.300000", "104859.310000", "104901.317500", "104903.325000", "104905.332500", "104907.342500", "104909.350000", "104911.357500", "104913.365000", "104915.372500", "104917.382500", "104919.390000", "104921.397500", "104923.405000", "104925.412500", "104927.422500", "104929.430000", "104931.437500", "104933.445000", "104935.452500", "104937.462500", "104939.470000", "104941.477500", "104943.485000", "104945.495000", "104947.502500", "104949.510000", "104951.517500", "104953.525000", "104955.535000", "104957.542500", "104959.550000", "105001.557500", "105003.565000", "105005.575000", "105007.582500", "105009.590000", "105011.597500", "105013.607500", "105015.615000", "105017.622500", "105019.630000", "105021.637500", "105023.647500", "105025.655000", "105027.662500", "105029.670000", "105031.677500", "105033.687500", "105035.695000", "105037.702500", "105039.710000", "105041.720000", "105043.727500", "105045.735000", "105047.742500", "105049.750000", "105051.760000", "105053.767500", "105055.775000", "105057.782500", "105059.790000", "105101.800000", "105103.807500", "105105.815000", "105107.822500", "105109.830000", "105111.840000", "105113.847500", "105115.855000", "105117.862500", "105119.872500", "105121.880000", "105123.887500", "105125.895000", "105127.902500", "105129.912500", "105131.920000", "105133.927500", "105135.935000", "105137.942500", "105139.952500"],
      "ContentTime": ["104444.375000", "104445.843000", "104447.843000", "104450.343000", "104451.843000", "104453.843000", "104456.343000", "104458.343000", "104459.843000", "104501.843000", "104503.843000", "104505.843000", "104507.843000", "104509.843000", "104511.843000", "104513.843000", "104516.343000", "104518.343000", "104519.843000", "104521.843000", "104523.843000", "104525.843000", "104527.843000", "104530.343000", "104531.843000", "104533.843000", "104536.343000", "104537.843000", "104539.843000", "104541.843000", "104543.843000", "104545.843000", "104548.343000", "104549.843000", "104551.843000", "104553.843000", "104555.843000", "104557.843000", "104559.843000", "104601.843000", "104603.843000", "104605.843000", "104607.843000", "104609.843000", "104611.843000", "104613.843000", "104615.843000", "104617.843000", "104619.843000", "104621.843000", "104624.343000", "104625.843000", "104627.843000", "104629.843000", "104631.843000", "104633.843000", "104635.843000", "104637.843000", "104640.343000", "104641.843000", "104644.343000", "104645.843000", "104647.843000", "104649.843000", "104652.343000", "104653.843000", "104656.343000", "104657.843000", "104659.843000", "104701.843000", "104704.343000", "104705.843000", "104707.843000", "104709.843000", "104711.843000", "104714.343000", "104715.843000", "104717.843000", "104719.843000", "104721.843000", "104723.843000", "104725.843000", "104727.843000", "104730.343000", "104731.843000", "104733.843000", "104735.843000", "104737.843000", "104739.843000", "104741.843000", "104743.843000", "104745.843000", "104747.843000", "104749.843000", "104751.843000", "104753.843000", "104755.843000", "104757.843000", "104759.843000", "104801.843000", "104803.843000", "104805.843000", "104807.843000", "104810.343000", "104812.343000", "104813.843000", "104815.843000", "104817.843000", "104819.843000", "104821.843000", "104823.843000", "104825.843000", "104827.843000", "104829.843000", "104831.843000", "104833.843000", "104835.843000", "104837.843000", "104839.843000", "104841.843000", "104843.843000", "104845.843000", "104847.843000", "104849.843000", "104851.843000", "104853.843000", "104855.843000", "104857.843000", "104859.843000", "104901.843000", "104903.843000", "104905.843000", "104907.843000", "104910.343000", "104912.343000", "104913.843000", "104915.843000", "104917.843000", "104919.843000", "104921.843000", "104923.843000", "104925.843000", "104927.843000", "104929.843000", "104931.843000", "104933.843000", "104935.843000", "104938.343000", "104939.843000", "104941.843000", "104943.843000", "104946.343000", "104947.843000", "104949.843000", "104951.843000", "104953.843000", "104955.843000", "104957.843000", "104959.843000", "105001.843000", "105003.843000", "105005.843000", "105008.343000", "105009.843000", "105011.843000", "105013.843000", "105015.859000", "105017.843000", "105020.343000", "105021.843000", "105024.343000", "105026.343000", "105028.343000", "105029.843000", "105031.843000", "105033.843000", "105035.843000", "105037.843000", "105039.843000", "105041.843000", "105043.843000", "105045.843000", "105047.843000", "105050.343000", "105051.843000", "105053.843000", "105055.843000", "105057.843000", "105059.843000", "105101.843000", "105103.843000", "105105.843000", "105107.843000", "105109.843000", "105111.843000", "105113.843000", "105115.843000", "105118.343000", "105119.843000", "105121.843000", "105123.843000", "105125.843000", "105127.843000", "105129.843000", "105131.843000", "105134.343000", "105135.843000", "105137.843000", "105139.843000", "105141.843000"],
      "InstanceCreationTime": ["104444.375000", "104445.843000", "104447.843000", "104450.343000", "104451.843000", "104453.843000", "104456.343000", "104458.343000", "104459.843000", "104501.843000", "104503.843000", "104505.843000", "104507.843000", "104509.843000", "104511.843000", "104513.843000", "104516.343000", "104518.343000", "104519.843000", "104521.843000", "104523.843000", "104525.843000", "104527.843000", "104530.343000", "104531.843000", "104533.843000", "104536.343000", "104537.843000", "104539.843000", "104541.843000", "104543.843000", "104545.843000", "104548.343000", "104549.843000", "104551.843000", "104553.843000", "104555.843000", "104557.843000", "104559.843000", "104601.843000", "104603.843000", "104605.843000", "104607.843000", "104609.843000", "104611.843000", "104613.843000", "104615.843000", "104617.843000", "104619.843000", "104621.843000", "104624.343000", "104625.843000", "104627.843000", "104629.843000", "104631.843000", "104633.843000", "104635.843000", "104637.843000", "104640.343000", "104641.843000", "104644.343000", "104645.843000", "104647.843000", "104649.843000", "104652.343000", "104653.843000", "104656.343000", "104657.843000", "104659.843000", "104701.843000", "104704.343000", "104705.843000", "104707.843000", "104709.843000", "104711.843000", "104714.343000", "104715.843000", "104717.843000", "104719.843000", "104721.843000", "104723.843000", "104725.843000", "104727.843000", "104730.343000", "104731.843000", "104733.843000", "104735.843000", "104737.843000", "104739.843000", "104741.843000", "104743.843000", "104745.843000", "104747.843000", "104749.843000", "104751.843000", "104753.843000", "104755.843000", "104757.843000", "104759.843000", "104801.843000", "104803.843000", "104805.843000", "104807.843000", "104810.343000", "104812.343000", "104813.843000", "104815.843000", "104817.843000", "104819.843000", "104821.843000", "104823.843000", "104825.843000", "104827.843000", "104829.843000", "104831.843000", "104833.843000", "104835.843000", "104837.843000", "104839.843000", "104841.843000", "104843.843000", "104845.843000", "104847.843000", "104849.843000", "104851.843000", "104853.843000", "104855.843000", "104857.843000", "104859.843000", "104901.843000", "104903.843000", "104905.843000", "104907.843000", "104910.343000", "104912.343000", "104913.843000", "104915.843000", "104917.843000", "104919.843000", "104921.843000", "104923.843000", "104925.843000", "104927.843000", "104929.843000", "104931.843000", "104933.843000", "104935.843000", "104938.343000", "104939.843000", "104941.843000", "104943.843000", "104946.343000", "104947.843000", "104949.843000", "104951.843000", "104953.843000", "104955.843000", "104957.843000", "104959.843000", "105001.843000", "105003.843000", "105005.843000", "105008.343000", "105009.843000", "105011.843000", "105013.843000", "105015.859000", "105017.843000", "105020.343000", "105021.843000", "105024.343000", "105026.343000", "105028.343000", "105029.843000", "105031.843000", "105033.843000", "105035.843000", "105037.843000", "105039.843000", "105041.843000", "105043.843000", "105045.843000", "105047.843000", "105050.343000", "105051.843000", "105053.843000", "105055.843000", "105057.843000", "105059.843000", "105101.843000", "105103.843000", "105105.843000", "105107.843000", "105109.843000", "105111.843000", "105113.843000", "105115.843000", "105118.343000", "105119.843000", "105121.843000", "105123.843000", "105125.843000", "105127.843000", "105129.843000", "105131.843000", "105134.343000", "105135.843000", "105137.843000", "105139.843000", "105141.843000"],
      "InstanceNumber": [1, 2, 3, 4, 5, 6, 7, 8, 9, 10, 11, 12, 13, 14, 15, 16, 17, 18, 19, 20, 21, 22, 23, 24, 25, 26, 27, 28, 29, 30, 31, 32, 33, 34, 35, 36, 37, 38, 39, 40, 41, 42, 43, 44, 45, 46, 47, 48, 49, 50, 51, 52, 53, 54, 55, 56, 57, 58, 59, 60, 61, 62, 63, 64, 65, 66, 67, 68, 69, 70, 71, 72, 73, 74, 75, 76, 77, 78, 79, 80, 81, 82, 83, 84, 85, 86, 87, 88, 89, 90, 91, 92, 93, 94, 95, 96, 97, 98, 99, 100, 101, 102, 103, 104, 105, 106, 107, 108, 109, 110, 111, 112, 113, 114, 115, 116, 117, 118, 119, 120, 121, 122, 123, 124, 125, 126, 127, 128, 129, 130, 131, 132, 133, 134, 135, 136, 137, 138, 139, 140, 141, 142, 143, 144, 145, 146, 147, 148, 149, 150, 151, 152, 153, 154, 155, 156, 157, 158, 159, 160, 161, 162, 163, 164, 165, 166, 167, 168, 169, 170, 171, 172, 173, 174, 175, 176, 177, 178, 179, 180, 181, 182, 183, 184, 185, 186, 187, 188, 189, 190, 191, 192, 193, 194, 195, 196, 197, 198, 199, 200, 201, 202, 203, 204, 205, 206, 207, 208, 209, 210],
      "LargestImagePixelValue": [1973, 1896, 1880, 1871, 1851, 1839, 1854, 1836, 1845, 1830, 1854, 1843, 1852, 1856, 1875, 1846, 1846, 1851, 1864, 1836, 1882, 1866, 1832, 1853, 1841, 1848, 1835, 1858, 1856, 1826, 1841, 1845, 1866, 1860, 1854, 1838, 1868, 1853, 1843, 1839, 1866, 1840, 1843, 1854, 1863, 1848, 1854, 1856, 1867, 1862, 1852, 1876, 1853, 1832, 1848, 1853, 1846, 1849, 1888, 1861, 1843, 1850, 1840, 1855, 1839, 1843, 1832, 1841, 1843, 1844, 1840, 1841, 1829, 1865, 1859, 1802, 1803, 1825, 1813, 1822, 1852, 1830, 1822, 1839, 1839, 1839, 1862, 1873, 1852, 1867, 1846, 1871, 1834, 1840, 1834, 1868, 1836, 1861, 1857, 1819, 1849, 1865, 1849, 1841, 1816, 1824, 1830, 1846, 1873, 1843, 1855, 1820, 1842, 1832, 1835, 1841, 1865, 1845, 1844, 1861, 1869, 1848, 1839, 1865, 1838, 1842, 1869, 1876, 1876, 1840, 1870, 1809, 1818, 1805, 1799, 1804, 1825, 1825, 1835, 1837, 1829, 1825, 1848, 1826, 1827, 1851, 1814, 1832, 1852, 1827, 1797, 1795, 1799, 1788, 1785, 1770, 1778, 1783, 1781, 1802, 1795, 1806, 1794, 1814, 1798, 1795, 1815, 1804, 1807, 1810, 1816, 1815, 1807, 1838, 1809, 1806, 1810, 1785, 1799, 1822, 1807, 1799, 1836, 1813, 1795, 1797, 1792, 1828, 1811, 1802, 1800, 1793, 1809, 1807, 1788, 1790, 1800, 1786, 1860, 1880, 1801, 1813, 1788, 1882, 1777, 1815, 1780, 1792, 1836, 2210],
      "WindowCenter": [764.0, 760.0, 758.0, 758.0, 758.0, 758.0, 759.0, 759.0, 759.0, 759.0, 759.0, 759.0, 759.0, 759.0, 759.0, 759.0, 759.0, 759.0, 759.0, 759.0, 759.0, 760.0, 760.0, 760.0, 760.0, 759.0, 760.0, 760.0, 760.0, 760.0, 759.0, 758.0, 758.0, 759.0, 760.0, 759.0, 759.0, 759.0, 758.0, 758.0, 757.0, 757.0, 757.0, 756.0, 756.0, 757.0, 757.0, 758.0, 759.0, 758.0, 757.0, 758.0, 759.0, 759.0, 760.0, 760.0, 760.0, 759.0, 758.0, 758.0, 759.0, 760.0, 760.0, 759.0, 758.0, 756.0, 756.0, 758.0, 758.0, 759.0, 760.0, 759.0, 758.0, 757.0, 761.0, 760.0, 759.0, 759.0, 758.0, 757.0, 757.0, 758.0, 759.0, 760.0, 760.0, 759.0, 758.0, 758.0, 759.0, 759.0, 759.0, 759.0, 760.0, 760.0, 760.0, 759.0, 758.0, 758.0, 758.0, 759.0, 760.0, 762.0, 762.0, 763.0, 763.0, 761.0, 759.0, 757.0, 757.0, 756.0, 756.0, 757.0, 759.0, 760.0, 760.0, 759.0, 758.0, 758.0, 759.0, 759.0, 760.0, 760.0, 759.0, 759.0, 759.0, 760.0, 761.0, 761.0, 760.0, 759.0, 764.0, 759.0, 758.0, 758.0, 758.0, 758.0, 758.0, 759.0, 760.0, 760.0, 760.0, 761.0, 760.0, 759.0, 760.0, 760.0, 760.0, 760.0, 759.0, 759.0, 759.0, 759.0, 760.0, 759.0, 759.0, 759.0, 760.0, 760.0, 760.0, 762.0, 759.0, 757.0, 754.0, 754.0, 754.0, 756.0, 757.0, 758.0, 758.0, 758.0, 758.0, 759.0, 760.0, 761.0, 762.0, 763.0, 763.0, 762.0, 761.0, 761.0, 761.0, 765.0, 764.0, 765.0, 763.0, 761.0, 760.0, 759.0, 759.0, 760.0, 760.0, 760.0, 759.0, 759.0, 760.0, 759.0, 759.0, 758.0, 759.0, 761.0, 761.0, 760.0, 758.0, 759.0, 759.0, 761.0, 759.0, 761.0, 762.0, 775.0],
      "WindowWidth": [1606.0, 1595.0, 1591.0, 1590.0, 1590.0, 1591.0, 1591.0, 1592.0, 1592.0, 1592.0, 1592.0, 1592.0, 1593.0, 1592.0, 1593.0, 1592.0, 1593.0, 1593.0, 1593.0, 1592.0, 1593.0, 1594.0, 1596.0, 1596.0, 1594.0, 1593.0, 1595.0, 1596.0, 1596.0, 1594.0, 1594.0, 1591.0, 1591.0, 1593.0, 1594.0, 1594.0, 1593.0, 1592.0, 1591.0, 1590.0, 1589.0, 1588.0, 1587.0, 1587.0, 1587.0, 1587.0, 1589.0, 1590.0, 1591.0, 1589.0, 1589.0, 1590.0, 1592.0, 1592.0, 1594.0, 1595.0, 1594.0, 1592.0, 1591.0, 1590.0, 1594.0, 1595.0, 1594.0, 1593.0, 1589.0, 1587.0, 1586.0, 1590.0, 1591.0, 1593.0, 1595.0, 1593.0, 1590.0, 1589.0, 1597.0, 1595.0, 1593.0, 1592.0, 1591.0, 1588.0, 1588.0, 1591.0, 1593.0, 1595.0, 1594.0, 1593.0, 1591.0, 1591.0, 1592.0, 1594.0, 1594.0, 1593.0, 1595.0, 1595.0, 1594.0, 1592.0, 1590.0, 1589.0, 1590.0, 1593.0, 1596.0, 1599.0, 1601.0, 1602.0, 1603.0, 1597.0, 1593.0, 1588.0, 1587.0, 1585.0, 1587.0, 1589.0, 1592.0, 1595.0, 1595.0, 1593.0, 1591.0, 1589.0, 1592.0, 1594.0, 1595.0, 1594.0, 1592.0, 1592.0, 1592.0, 1595.0, 1596.0, 1597.0, 1595.0, 1593.0, 1605.0, 1593.0, 1590.0, 1589.0, 1590.0, 1590.0, 1590.0, 1592.0, 1594.0, 1596.0, 1596.0, 1596.0, 1594.0, 1593.0, 1595.0, 1595.0, 1596.0, 1594.0, 1593.0, 1592.0, 1592.0, 1593.0, 1594.0, 1591.0, 1591.0, 1592.0, 1594.0, 1595.0, 1596.0, 1599.0, 1593.0, 1587.0, 1581.0, 1580.0, 1582.0, 1585.0, 1587.0, 1589.0, 1590.0, 1590.0, 1591.0, 1592.0, 1594.0, 1598.0, 1599.0, 1601.0, 1601.0, 1600.0, 1598.0, 1597.0, 1598.0, 1606.0, 1606.0, 1607.0, 1601.0, 1597.0, 1594.0, 1593.0, 1593.0, 1594.0, 1596.0, 1594.0, 1593.0, 1593.0, 1594.0, 1593.0, 1592.0, 1590.0, 1591.0, 1597.0, 1597.0, 1593.0, 1591.0, 1594.0, 1592.0, 1597.0, 1594.0, 1598.0, 1602.0, 1635.0]
    },
    "slices": {}
  }
}