{
  "AcquisitionMatrixPE": 64,
  "AcquisitionNumber": 1,
  "AcquisitionTime": "12:47:38.997500",
  "BandwidthPerPixelPhaseEncode": 30.637,
  "BaseResolution": 64,
  "BidsGuess": [
    "func",
    "_acq-epfid2_dir-AP_run-9_bold"
],
  "CoilCombinationMethod": "Sum of Squares",
  "CoilString": "C:HEA;HEP",
  "ConversionSoftware": "dcm2niix",
  "ConversionSoftwareVersion": "v1.0.20240202",
  "DerivedVendorReportedEchoSpacing": 0.000510004,
  "DeviceSerialNumber": "35119",
  "DwellTime": 3.5e-06,
  "EchoTime": 0.03,
  "EffectiveEchoSpacing": 0.000510004,
  "FlipAngle": 78,
  "HeudiconvVersion": "1.1.6",
  "ImageComments": "V",
  "ImageOrientationPatientDICOM": [1, 0, 0, 0, 0.904083, -0.427358],
  "ImageOrientationText": "Tra>Cor(-25.3)",
  "ImageType": [
    "ORIGINAL",
    "PRIMARY",
    "M",
    "ND",
    "MOSAIC"
],
  "ImagingFrequency": 123.251948,
  "InPlanePhaseEncodingDirectionDICOM": "COL",
  "InstitutionAddress": "Chaucer Road  15,Cambridge,UK,GB,CB2 2EF",
  "InstitutionName": "MRC-CBU",
  "MRAcquisitionType": "2D",
  "MagneticFieldStrength": 3,
  "Manufacturer": "Siemens",
  "ManufacturersModelName": "TrioTim",
  "MatrixCoilMode": "SENSE",
  "Modality": "MR",
  "NonlinearGradientCorrection": false,
  "PartialFourier": 1,
  "PatientPosition": "HFS",
  "PercentPhaseFOV": 100,
  "PercentSampling": 100,
  "PhaseEncodingDirection": "j-",
  "PhaseEncodingSteps": 64,
  "PhaseResolution": 1,
  "PixelBandwidth": 2230,
  "ProcedureStepDescription": "CBU^Neuroimaging",
  "ProtocolName": "CBU_DWEPI_BOLD210",
  "PulseSequenceDetails": "%SiemensSeq%\\ep2d_bold",
  "ReceiveCoilName": "HeadMatrix",
  "ReconMatrixPE": 64,
  "RepetitionTime": 2,
  "SAR": 0.141777,
  "ScanOptions": "FS",
  "ScanningSequence": "EP",
  "SequenceName": "*epfid2d1_64",
  "SequenceVariant": "SK",
  "SeriesDescription": "CBU_DWEPI_BOLD210",
  "SeriesNumber": 9,
  "ShimSetting": [-7779, -8837, -2256, 687, 190, -7, -8, 38],
  "SliceThickness": 3,
  "SliceTiming": [0, 1.035, 0.0625, 1.095, 0.1225, 1.1575, 0.1825, 1.2175, 0.245, 1.2775, 0.305, 1.34, 0.365, 1.4, 0.4275, 1.46, 0.4875, 1.5225, 0.5475, 1.5825, 0.61, 1.6425, 0.67, 1.705, 0.73, 1.765, 0.7925, 1.825, 0.8525, 1.8875, 0.9125, 1.9475, 0.975],
  "SoftwareVersions": "syngo MR B15",
  "SpacingBetweenSlices": 3.75,
  "StationName": "MRC35119",
  "TaskName": "faceprocessing",
  "TotalReadoutTime": 0.0321303,
  "TxRefAmp": 317.273,
  "dcmmeta_affine": [
    [-3.0, 0.0, 0.0, 98.53389739990234],
    [0.0, 2.7122490406036377, -1.6025924682617188, -51.0002555847168],
    [0.0, 1.282073974609375, 3.3903112411499023, -82.27018737792969],
    [0.0, 0.0, 0.0, 1.0]
],
  "dcmmeta_reorient_transform": [
    [0.0, -1.0, 0.0, 63.0],
    [1.0, 0.0, 0.0, 0.0],
    [0.0, 0.0, 1.0, 0.0],
    [0.0, 0.0, 0.0, 1.0]
],
  "dcmmeta_shape": [64, 64, 33, 210],
  "dcmmeta_slice_dim": 2,
  "dcmmeta_version": 0.6,
  "global": {
    "const": {
      "AcquisitionMatrix": [64, 0, 0, 64],
      "AngioFlag": "N",
      "BitsAllocated": 16,
      "BitsStored": 12,
      "Columns": 384,
      "EchoNumbers": 1,
      "EchoTime": 30.0,
      "EchoTrainLength": 1,
      "FlipAngle": 78.0,
      "HighBit": 11,
      "ImageOrientationPatient": [1.0, 0.0, 0.0, 0.0, 0.904083, -0.427358],
      "ImagePositionPatient": [-578.533898, -553.831271, 203.632315],
      "ImageType": [
        "ORIGINAL",
        "PRIMARY",
        "M",
        "ND",
        "MOSAIC"
],
      "ImagedNucleus": "1H",
      "ImagingFrequency": 123.251948,
      "InPlanePhaseEncodingDirection": "COL",
      "MRAcquisitionType": "2D",
      "MagneticFieldStrength": 3.0,
      "Manufacturer": "SIEMENS",
      "ManufacturerModelName": "TrioTim",
      "Modality": "MR",
      "NumberOfAverages": 1.0,
      "NumberOfPhaseEncodingSteps": 64,
      "PercentPhaseFieldOfView": 100.0,
      "PercentSampling": 100.0,
      "PerformedProcedureStepStartTime": "115356.140000",
      "PhotometricInterpretation": "MONOCHROME2",
      "PixelAspectRatio": [1, 1],
      "PixelBandwidth": 2230.0,
      "PixelRepresentation": 0,
      "PixelSpacing": [3.0, 3.0],
      "ProtocolName": "CBU_DWEPI_BOLD210",
      "RepetitionTime": 2000.0,
      "Rows": 384,
      "SAR": 0.141777,
      "SamplesPerPixel": 1,
      "ScanOptions": "FS",
      "ScanningSequence": "EP",
      "SequenceName": "*epfid2d1_64",
      "SequenceVariant": "SK",
      "SeriesDescription": "CBU_DWEPI_BOLD210",
      "SeriesNumber": 9,
      "SeriesTime": "124742.062000",
      "SliceLocation": -52.583739,
      "SliceThickness": 3.0,
      "SmallestImagePixelValue": 0,
      "SoftwareVersions": "syngo MR B15",
      "SpacingBetweenSlices": 3.75,
      "SpecificCharacterSet": "ISO_IR 100",
      "StudyID": "1",
      "StudyTime": "115356.093000",
      "TransmitCoilName": "Body",
      "VariableFlipAngleFlag": "N",
      "WindowCenterWidthExplanation": "Algo1",
      "dBdt": 0.0},
    "slices": {}
  },
  "time": {
    "samples": {
      "AcquisitionNumber": [1, 2, 3, 4, 5, 6, 7, 8, 9, 10, 11, 12, 13, 14, 15, 16, 17, 18, 19, 20, 21, 22, 23, 24, 25, 26, 27, 28, 29, 30, 31, 32, 33, 34, 35, 36, 37, 38, 39, 40, 41, 42, 43, 44, 45, 46, 47, 48, 49, 50, 51, 52, 53, 54, 55, 56, 57, 58, 59, 60, 61, 62, 63, 64, 65, 66, 67, 68, 69, 70, 71, 72, 73, 74, 75, 76, 77, 78, 79, 80, 81, 82, 83, 84, 85, 86, 87, 88, 89, 90, 91, 92, 93, 94, 95, 96, 97, 98, 99, 100, 101, 102, 103, 104, 105, 106, 107, 108, 109, 110, 111, 112, 113, 114, 115, 116, 117, 118, 119, 120, 121, 122, 123, 124, 125, 126, 127, 128, 129, 130, 131, 132, 133, 134, 135, 136, 137, 138, 139, 140, 141, 142, 143, 144, 145, 146, 147, 148, 149, 150, 151, 152, 153, 154, 155, 156, 157, 158, 159, 160, 161, 162, 163, 164, 165, 166, 167, 168, 169, 170, 171, 172, 173, 174, 175, 176, 177, 178, 179, 180, 181, 182, 183, 184, 185, 186, 187, 188, 189, 190, 191, 192, 193, 194, 195, 196, 197, 198, 199, 200, 201, 202, 203, 204, 205, 206, 207, 208, 209, 210],
      "AcquisitionTime": ["124738.997500", "124741.007500", "124743.015000", "124745.022500", "124747.030000", "124749.037500", "124751.047500", "124753.055000", "124755.062500", "124757.070000", "124759.077500", "124801.087500", "124803.095000", "124805.102500", "124807.110000", "124809.117500", "124811.127500", "124813.135000", "124815.142500", "124817.150000", "124819.160000", "124821.167500", "124823.175000", "124825.182500", "124827.190000", "124829.200000", "124831.207500", "124833.215000", "124835.222500", "124837.230000", "124839.240000", "124841.247500", "124843.255000", "124845.262500", "124847.272500", "124849.280000", "124851.287500", "124853.295000", "124855.302500", "124857.312500", "124859.320000", "124901.327500", "124903.335000", "124905.342500", "124907.352500", "124909.360000", "124911.367500", "124913.375000", "124915.385000", "124917.392500", "124919.400000", "124921.407500", "124923.415000", "124925.425000", "124927.432500", "124929.440000", "124931.447500", "124933.455000", "124935.465000", "124937.472500", "124939.480000", "124941.487500", "124943.495000", "124945.505000", "124947.512500", "124949.520000", "124951.527500", "124953.537500", "124955.545000", "124957.552500", "124959.560000", "125001.567500", "125003.577500", "125005.585000", "125007.592500", "125009.600000", "125011.607500", "125013.617500", "125015.625000", "125017.632500", "125019.640000", "125021.650000", "125023.657500", "125025.665000", "125027.672500", "125029.680000", "125031.690000", "125033.697500", "125035.705000", "125037.712500", "125039.720000", "125041.730000", "125043.737500", "125045.745000", "125047.752500", "125049.762500", "125051.770000", "125053.777500", "125055.785000", "125057.792500", "125059.802500", "125101.810000", "125103.817500", "125105.825000", "125107.832500", "125109.842500", "125111.850000", "125113.857500", "125115.865000", "125117.872500", "125119.882500", "125121.890000", "125123.897500", "125125.905000", "125127.915000", "125129.922500", "125131.930000", "125133.937500", "125135.945000", "125137.955000", "125139.962500", "125141.970000", "125143.977500", "125145.985000", "125147.995000", "125150.002500", "125152.010000", "125154.017500", "125156.027500", "125158.035000", "125200.042500", "125202.050000", "125204.057500", "125206.067500", "125208.075000", "125210.082500", "125212.090000", "125214.097500", "125216.107500", "125218.115000", "125220.122500", "125222.130000", "125224.140000", "125226.147500", "125228.155000", "125230.162500", "125232.170000", "125234.180000", "125236.187500", "125238.195000", "125240.202500", "125242.210000", "125244.220000", "125246.227500", "125248.235000", "125250.242500", "125252.250000", "125254.260000", "125256.267500", "125258.275000", "125300.282500", "125302.292500", "125304.300000", "125306.307500", "125308.315000", "125310.322500", "125312.332500", "125314.340000", "125316.347500", "125318.355000", "125320.362500", "125322.372500", "125324.380000", "125326.387500", "125328.395000", "125330.405000", "125332.412500", "125334.420000", "125336.427500", "125338.435000", "125340.445000", "125342.452500", "125344.460000", "125346.467500", "125348.475000", "125350.485000", "125352.492500", "125354.500000", "125356.507500", "125358.517500", "125400.525000", "125402.532500", "125404.540000", "125406.547500", "125408.557500", "125410.565000", "125412.572500", "125414.580000", "125416.587500", "125418.597500", "125420.605000", "125422.612500", "125424.620000", "125426.630000", "125428.637500", "125430.645000", "125432.652500", "125434.660000", "125436.670000", "125438.677500"],
      "ContentTime": ["124742.078000", "124744.062000", "124746.062000", "124748.062000", "124750.062000", "124752.062000", "124754.062000", "124756.062000", "124758.062000", "124800.062000", "124802.062000", "124804.062000", "124806.062000", "124808.062000", "124810.062000", "124812.062000", "124814.062000", "124816.062000", "124818.062000", "124820.062000", "124822.062000", "124824.062000", "124826.062000", "124828.062000", "124830.062000", "124832.078000", "124834.062000", "124836.062000", "124838.062000", "124840.062000", "124842.062000", "124843.562000", "124846.062000", "124848.062000", "124850.062000", "124852.062000", "124854.062000", "124856.062000", "124858.062000", "124900.062000", "124902.062000", "124904.062000", "124906.062000", "124908.062000", "124910.062000", "124912.062000", "124914.062000", "124916.062000", "124918.062000", "124920.062000", "124922.062000", "124924.078000", "124926.062000", "124928.062000", "124930.062000", "124932.062000", "124934.062000", "124936.062000", "124938.062000", "124940.062000", "124942.062000", "124944.062000", "124946.062000", "124948.062000", "124950.062000", "124952.062000", "124954.062000", "124956.062000", "124958.062000", "125000.062000", "125002.062000", "125004.062000", "125006.062000", "125008.062000", "125010.062000", "125012.062000", "125014.062000", "125016.062000", "125018.062000", "125020.062000", "125022.062000", "125024.062000", "125026.062000", "125028.062000", "125030.062000", "125032.062000", "125034.062000", "125036.062000", "125038.062000", "125040.062000", "125042.062000", "125044.062000", "125046.062000", "125048.062000", "125050.062000", "125051.562000", "125054.062000", "125056.062000", "125058.062000", "125100.062000", "125102.062000", "125104.062000", "125106.062000", "125108.062000", "125110.062000", "125112.062000", "125114.062000", "125116.062000", "125118.062000", "125120.062000", "125122.062000", "125124.062000", "125126.062000", "125128.062000", "125130.062000", "125132.062000", "125134.062000", "125136.062000", "125138.062000", "125140.062000", "125142.062000", "125144.062000", "125146.062000", "125148.062000", "125150.062000", "125152.062000", "125154.062000", "125156.062000", "125158.062000", "125200.062000", "125202.062000", "125204.062000", "125206.062000", "125208.062000", "125210.062000", "125212.062000", "125214.062000", "125216.062000", "125218.062000", "125220.062000", "125222.062000", "125224.062000", "125226.062000", "125228.062000", "125230.062000", "125232.062000", "125234.062000", "125236.062000", "125238.062000", "125240.062000", "125242.062000", "125244.062000", "125246.062000", "125248.062000", "125250.062000", "125252.062000", "125254.062000", "125256.062000", "125258.062000", "125300.062000", "125302.062000", "125304.062000", "125306.062000", "125308.062000", "125310.062000", "125312.062000", "125314.062000", "125316.062000", "125318.062000", "125320.062000", "125322.062000", "125324.062000", "125326.062000", "125328.062000", "125330.062000", "125332.062000", "125334.062000", "125336.062000", "125338.062000", "125340.062000", "125342.062000", "125344.062000", "125346.062000", "125348.062000", "125350.062000", "125352.062000", "125354.062000", "125356.062000", "125358.062000", "125400.062000", "125402.062000", "125403.562000", "125406.062000", "125408.062000", "125410.062000", "125412.062000", "125414.062000", "125416.062000", "125418.062000", "125420.062000", "125422.062000", "125424.062000", "125426.062000", "125428.062000", "125430.062000", "125432.062000", "125434.062000", "125436.062000", "125438.062000", "125439.703000"],
      "InstanceCreationTime": ["124742.078000", "124744.062000", "124746.062000", "124748.062000", "124750.062000", "124752.062000", "124754.062000", "124756.062000", "124758.062000", "124800.062000", "124802.062000", "124804.062000", "124806.062000", "124808.062000", "124810.062000", "124812.062000", "124814.062000", "124816.062000", "124818.062000", "124820.062000", "124822.062000", "124824.062000", "124826.062000", "124828.062000", "124830.062000", "124832.078000", "124834.062000", "124836.062000", "124838.062000", "124840.062000", "124842.062000", "124843.562000", "124846.062000", "124848.062000", "124850.062000", "124852.062000", "124854.062000", "124856.062000", "124858.062000", "124900.062000", "124902.062000", "124904.062000", "124906.062000", "124908.062000", "124910.062000", "124912.062000", "124914.062000", "124916.062000", "124918.062000", "124920.062000", "124922.062000", "124924.078000", "124926.062000", "124928.062000", "124930.062000", "124932.062000", "124934.062000", "124936.062000", "124938.062000", "124940.062000", "124942.062000", "124944.062000", "124946.062000", "124948.062000", "124950.062000", "124952.062000", "124954.062000", "124956.062000", "124958.062000", "125000.062000", "125002.062000", "125004.062000", "125006.062000", "125008.062000", "125010.062000", "125012.062000", "125014.062000", "125016.062000", "125018.062000", "125020.062000", "125022.062000", "125024.062000", "125026.062000", "125028.062000", "125030.062000", "125032.062000", "125034.062000", "125036.062000", "125038.062000", "125040.062000", "125042.062000", "125044.062000", "125046.062000", "125048.062000", "125050.062000", "125051.562000", "125054.062000", "125056.062000", "125058.062000", "125100.062000", "125102.062000", "125104.062000", "125106.062000", "125108.062000", "125110.062000", "125112.062000", "125114.062000", "125116.062000", "125118.062000", "125120.062000", "125122.062000", "125124.062000", "125126.062000", "125128.062000", "125130.062000", "125132.062000", "125134.062000", "125136.062000", "125138.062000", "125140.062000", "125142.062000", "125144.062000", "125146.062000", "125148.062000", "125150.062000", "125152.062000", "125154.062000", "125156.062000", "125158.062000", "125200.062000", "125202.062000", "125204.062000", "125206.062000", "125208.062000", "125210.062000", "125212.062000", "125214.062000", "125216.062000", "125218.062000", "125220.062000", "125222.062000", "125224.062000", "125226.062000", "125228.062000", "125230.062000", "125232.062000", "125234.062000", "125236.062000", "125238.062000", "125240.062000", "125242.062000", "125244.062000", "125246.062000", "125248.062000", "125250.062000", "125252.062000", "125254.062000", "125256.062000", "125258.062000", "125300.062000", "125302.062000", "125304.062000", "125306.062000", "125308.062000", "125310.062000", "125312.062000", "125314.062000", "125316.062000", "125318.062000", "125320.062000", "125322.062000", "125324.062000", "125326.062000", "125328.062000", "125330.062000", "125332.062000", "125334.062000", "125336.062000", "125338.062000", "125340.062000", "125342.062000", "125344.062000", "125346.062000", "125348.062000", "125350.062000", "125352.062000", "125354.062000", "125356.062000", "125358.062000", "125400.062000", "125402.062000", "125403.562000", "125406.062000", "125408.062000", "125410.062000", "125412.062000", "125414.062000", "125416.062000", "125418.062000", "125420.062000", "125422.062000", "125424.062000", "125426.062000", "125428.062000", "125430.062000", "125432.062000", "125434.062000", "125436.062000", "125438.062000", "125439.703000"],
      "InstanceNumber": [1, 2, 3, 4, 5, 6, 7, 8, 9, 10, 11, 12, 13, 14, 15, 16, 17, 18, 19, 20, 21, 22, 23, 24, 25, 26, 27, 28, 29, 30, 31, 32, 33, 34, 35, 36, 37, 38, 39, 40, 41, 42, 43, 44, 45, 46, 47, 48, 49, 50, 51, 52, 53, 54, 55, 56, 57, 58, 59, 60, 61, 62, 63, 64, 65, 66, 67, 68, 69, 70, 71, 72, 73, 74, 75, 76, 77, 78, 79, 80, 81, 82, 83, 84, 85, 86, 87, 88, 89, 90, 91, 92, 93, 94, 95, 96, 97, 98, 99, 100, 101, 102, 103, 104, 105, 106, 107, 108, 109, 110, 111, 112, 113, 114, 115, 116, 117, 118, 119, 120, 121, 122, 123, 124, 125, 126, 127, 128, 129, 130, 131, 132, 133, 134, 135, 136, 137, 138, 139, 140, 141, 142, 143, 144, 145, 146, 147, 148, 149, 150, 151, 152, 153, 154, 155, 156, 157, 158, 159, 160, 161, 162, 163, 164, 165, 166, 167, 168, 169, 170, 171, 172, 173, 174, 175, 176, 177, 178, 179, 180, 181, 182, 183, 184, 185, 186, 187, 188, 189, 190, 191, 192, 193, 194, 195, 196, 197, 198, 199, 200, 201, 202, 203, 204, 205, 206, 207, 208, 209, 210],
      "LargestImagePixelValue": [1995, 2126, 1769, 1691, 1671, 1672, 1676, 1811, 1662, 1669, 1696, 1685, 1651, 1666, 1658, 1666, 1675, 1667, 1690, 1662, 1682, 1674, 1652, 1794, 1666, 1662, 1662, 1675, 1679, 1666, 1680, 1660, 1676, 1679, 1668, 1664, 1672, 1658, 1641, 1696, 1667, 1650, 1655, 1696, 1723, 1649, 1893, 1641, 1795, 1671, 1645, 1656, 1655, 1670, 1667, 1673, 1691, 1659, 1761, 1672, 1813, 1677, 1674, 1661, 1669, 1674, 1678, 1688, 1674, 1670, 1685, 1662, 1663, 1651, 1800, 1671, 1674, 1690, 1668, 1683, 1675, 1677, 1661, 1662, 1667, 1667, 1675, 1660, 1691, 1686, 1659, 1672, 1675, 1669, 1689, 1674, 1722, 1677, 1671, 1685, 1661, 1691, 1681, 1712, 1675, 1676, 1667, 1670, 1678, 1706, 1682, 1876, 1735, 1682, 1680, 1693, 1680, 1710, 1705, 1702, 1679, 1768, 1827, 1705, 1721, 1705, 1686, 1706, 1693, 1694, 1694, 1696, 1680, 1699, 1702, 1719, 1706, 1691, 1703, 1707, 1806, 1705, 1702, 1692, 1709, 1699, 1701, 1716, 1798, 1707, 1715, 1723, 1870, 1811, 1681, 1698, 1694, 1722, 1743, 1723, 1704, 1737, 1705, 1705, 1924, 1762, 1721, 1708, 1718, 1714, 1707, 1705, 1720, 1713, 1716, 1948, 1716, 1731, 1724, 1703, 1718, 1766, 1707, 1725, 1710, 1705, 1718, 1724, 1723, 1719, 1719, 1730, 1737, 1726, 1718, 1742, 1720, 1734, 1731, 1728, 1744, 1722, 1923, 1727, 1731, 1731, 1748, 1751, 1732, 1729],
      "WindowCenter": [732.0, 727.0, 724.0, 725.0, 727.0, 728.0, 728.0, 729.0, 728.0, 729.0, 730.0, 730.0, 730.0, 730.0, 729.0, 730.0, 730.0, 730.0, 730.0, 730.0, 730.0, 730.0, 729.0, 731.0, 730.0, 730.0, 729.0, 729.0, 729.0, 729.0, 729.0, 728.0, 728.0, 728.0, 728.0, 729.0, 730.0, 730.0, 729.0, 730.0, 730.0, 730.0, 730.0, 729.0, 729.0, 730.0, 732.0, 730.0, 729.0, 728.0, 728.0, 729.0, 730.0, 730.0, 730.0, 729.0, 730.0, 731.0, 731.0, 730.0, 730.0, 729.0, 729.0, 729.0, 729.0, 729.0, 730.0, 729.0, 730.0, 730.0, 730.0, 729.0, 729.0, 728.0, 729.0, 728.0, 729.0, 729.0, 729.0, 730.0, 731.0, 730.0, 730.0, 729.0, 729.0, 729.0, 730.0, 729.0, 728.0, 728.0, 728.0, 729.0, 729.0, 729.0, 730.0, 730.0, 731.0, 730.0, 729.0, 730.0, 731.0, 732.0, 731.0, 730.0, 729.0, 729.0, 728.0, 729.0, 730.0, 730.0, 730.0, 731.0, 730.0, 730.0, 731.0, 731.0, 730.0, 730.0, 730.0, 731.0, 730.0, 730.0, 730.0, 729.0, 730.0, 730.0, 729.0, 730.0, 729.0, 729.0, 728.0, 728.0, 729.0, 730.0, 730.0, 730.0, 730.0, 730.0, 730.0, 730.0, 730.0, 729.0, 730.0, 731.0, 733.0, 732.0, 732.0, 731.0, 731.0, 732.0, 732.0, 730.0, 730.0, 729.0, 728.0, 729.0, 730.0, 730.0, 731.0, 731.0, 731.0, 731.0, 730.0, 730.0, 732.0, 731.0, 731.0, 730.0, 730.0, 730.0, 731.0, 731.0, 732.0, 732.0, 731.0, 732.0, 731.0, 732.0, 734.0, 734.0, 733.0, 731.0, 731.0, 731.0, 731.0, 730.0, 731.0, 730.0, 730.0, 730.0, 731.0, 732.0, 732.0, 732.0, 731.0, 732.0, 732.0, 733.0, 732.0, 731.0, 732.0, 733.0, 733.0, 731.0, 730.0, 730.0, 732.0, 734.0, 734.0, 734.0],
      "WindowWidth": [1551.0, 1539.0, 1532.0, 1535.0, 1538.0, 1541.0, 1541.0, 1544.0, 1542.0, 1544.0, 1547.0, 1548.0, 1547.0, 1546.0, 1545.0, 1545.0, 1546.0, 1546.0, 1547.0, 1547.0, 1546.0, 1546.0, 1545.0, 1548.0, 1546.0, 1547.0, 1545.0, 1544.0, 1544.0, 1544.0, 1544.0, 1543.0, 1541.0, 1542.0, 1542.0, 1545.0, 1546.0, 1546.0, 1545.0, 1546.0, 1546.0, 1547.0, 1546.0, 1544.0, 1544.0, 1546.0, 1551.0, 1546.0, 1543.0, 1542.0, 1541.0, 1545.0, 1546.0, 1546.0, 1546.0, 1545.0, 1547.0, 1549.0, 1550.0, 1547.0, 1546.0, 1544.0, 1543.0, 1543.0, 1544.0, 1545.0, 1546.0, 1545.0, 1546.0, 1546.0, 1546.0, 1545.0, 1544.0, 1541.0, 1543.0, 1543.0, 1544.0, 1545.0, 1544.0, 1546.0, 1548.0, 1548.0, 1546.0, 1544.0, 1544.0, 1545.0, 1546.0, 1543.0, 1542.0, 1542.0, 1543.0, 1544.0, 1544.0, 1544.0, 1546.0, 1548.0, 1549.0, 1546.0, 1545.0, 1547.0, 1548.0, 1551.0, 1549.0, 1546.0, 1544.0, 1543.0, 1542.0, 1544.0, 1545.0, 1547.0, 1546.0, 1549.0, 1547.0, 1547.0, 1549.0, 1549.0, 1546.0, 1545.0, 1547.0, 1550.0, 1547.0, 1548.0, 1547.0, 1545.0, 1547.0, 1547.0, 1545.0, 1545.0, 1544.0, 1544.0, 1543.0, 1542.0, 1544.0, 1547.0, 1548.0, 1547.0, 1547.0, 1547.0, 1547.0, 1546.0, 1547.0, 1545.0, 1546.0, 1549.0, 1553.0, 1552.0, 1551.0, 1550.0, 1550.0, 1551.0, 1550.0, 1547.0, 1547.0, 1544.0, 1541.0, 1544.0, 1547.0, 1547.0, 1549.0, 1550.0, 1548.0, 1549.0, 1547.0, 1547.0, 1552.0, 1550.0, 1548.0, 1547.0, 1546.0, 1548.0, 1548.0, 1548.0, 1551.0, 1551.0, 1550.0, 1551.0, 1549.0, 1553.0, 1557.0, 1556.0, 1553.0, 1550.0, 1548.0, 1548.0, 1548.0, 1547.0, 1549.0, 1547.0, 1547.0, 1547.0, 1549.0, 1551.0, 1550.0, 1550.0, 1549.0, 1551.0, 1552.0, 1553.0, 1551.0, 1549.0, 1551.0, 1553.0, 1554.0, 1549.0, 1546.0, 1547.0, 1553.0, 1556.0, 1557.0, 1556.0]
    },
    "slices": {}
  }
}