{
  "AcquisitionMatrixPE": 64,
  "AcquisitionNumber": 1,
  "AcquisitionTime": "12:55:13.992500",
  "BandwidthPerPixelPhaseEncode": 30.637,
  "BaseResolution": 64,
  "BidsGuess": [
    "func",
    "_acq-epfid2_dir-AP_run-10_bold"
],
  "CoilCombinationMethod": "Sum of Squares",
  "CoilString": "C:HEA;HEP",
  "ConversionSoftware": "dcm2niix",
  "ConversionSoftwareVersion": "v1.0.20240202",
  "DerivedVendorReportedEchoSpacing": 0.000510004,
  "DeviceSerialNumber": "35119",
  "DwellTime": 3.5e-06,
  "EchoTime": 0.03,
  "EffectiveEchoSpacing": 0.000510004,
  "FlipAngle": 78,
  "HeudiconvVersion": "1.1.6",
  "ImageComments": "V",
  "ImageOrientationPatientDICOM": [1, 0, 0, 0, 0.904083, -0.427358],
  "ImageOrientationText": "Tra>Cor(-25.3)",
  "ImageType": [
    "ORIGINAL",
    "PRIMARY",
    "M",
    "ND",
    "MOSAIC"
],
  "ImagingFrequency": 123.251948,
  "InPlanePhaseEncodingDirectionDICOM": "COL",
  "InstitutionAddress": "Chaucer Road  15,Cambridge,UK,GB,CB2 2EF",
  "InstitutionName": "MRC-CBU",
  "MRAcquisitionType": "2D",
  "MagneticFieldStrength": 3,
  "Manufacturer": "Siemens",
  "ManufacturersModelName": "TrioTim",
  "MatrixCoilMode": "SENSE",
  "Modality": "MR",
  "NonlinearGradientCorrection": false,
  "PartialFourier": 1,
  "PatientPosition": "HFS",
  "PercentPhaseFOV": 100,
  "PercentSampling": 100,
  "PhaseEncodingDirection": "j-",
  "PhaseEncodingSteps": 64,
  "PhaseResolution": 1,
  "PixelBandwidth": 2230,
  "ProcedureStepDescription": "CBU^Neuroimaging",
  "ProtocolName": "CBU_DWEPI_BOLD210",
  "PulseSequenceDetails": "%SiemensSeq%\\ep2d_bold",
  "ReceiveCoilName": "HeadMatrix",
  "ReconMatrixPE": 64,
  "RepetitionTime": 2,
  "SAR": 0.141777,
  "ScanOptions": "FS",
  "ScanningSequence": "EP",
  "SequenceName": "*epfid2d1_64",
  "SequenceVariant": "SK",
  "SeriesDescription": "CBU_DWEPI_BOLD210",
  "SeriesNumber": 10,
  "ShimSetting": [-7779, -8837, -2256, 687, 190, -7, -8, 38],
  "SliceThickness": 3,
  "SliceTiming": [0, 1.0325, 0.06, 1.095, 0.12, 1.155, 0.1825, 1.215, 0.2425, 1.2775, 0.3025, 1.3375, 0.365, 1.3975, 0.425, 1.46, 0.485, 1.52, 0.5475, 1.58, 0.6075, 1.6425, 0.6675, 1.7025, 0.73, 1.7625, 0.79, 1.825, 0.85, 1.885, 0.9125, 1.945, 0.9725],
  "SoftwareVersions": "syngo MR B15",
  "SpacingBetweenSlices": 3.75,
  "StationName": "MRC35119",
  "TaskName": "faceprocessing",
  "TotalReadoutTime": 0.0321303,
  "TxRefAmp": 317.273,
  "dcmmeta_affine": [
    [-3.0, 0.0, 0.0, 98.53389739990234],
    [0.0, 2.7122490406036377, -1.6025924682617188, -51.0002555847168],
    [0.0, 1.282073974609375, 3.3903112411499023, -82.27018737792969],
    [0.0, 0.0, 0.0, 1.0]
],
  "dcmmeta_reorient_transform": [
    [0.0, -1.0, 0.0, 63.0],
    [1.0, 0.0, 0.0, 0.0],
    [0.0, 0.0, 1.0, 0.0],
    [0.0, 0.0, 0.0, 1.0]
],
  "dcmmeta_shape": [64, 64, 33, 210],
  "dcmmeta_slice_dim": 2,
  "dcmmeta_version": 0.6,
  "global": {
    "const": {
      "AcquisitionMatrix": [64, 0, 0, 64],
      "AngioFlag": "N",
      "BitsAllocated": 16,
      "BitsStored": 12,
      "Columns": 384,
      "EchoNumbers": 1,
      "EchoTime": 30.0,
      "EchoTrainLength": 1,
      "FlipAngle": 78.0,
      "HighBit": 11,
      "ImageOrientationPatient": [1.0, 0.0, 0.0, 0.0, 0.904083, -0.427358],
      "ImagePositionPatient": [-578.533898, -553.831271, 203.632315],
      "ImageType": [
        "ORIGINAL",
        "PRIMARY",
        "M",
        "ND",
        "MOSAIC"
],
      "ImagedNucleus": "1H",
      "ImagingFrequency": 123.251948,
      "InPlanePhaseEncodingDirection": "COL",
      "MRAcquisitionType": "2D",
      "MagneticFieldStrength": 3.0,
      "Manufacturer": "SIEMENS",
      "ManufacturerModelName": "TrioTim",
      "Modality": "MR",
      "NumberOfAverages": 1.0,
      "NumberOfPhaseEncodingSteps": 64,
      "PercentPhaseFieldOfView": 100.0,
      "PercentSampling": 100.0,
      "PerformedProcedureStepStartTime": "115356.140000",
      "PhotometricInterpretation": "MONOCHROME2",
      "PixelAspectRatio": [1, 1],
      "PixelBandwidth": 2230.0,
      "PixelRepresentation": 0,
      "PixelSpacing": [3.0, 3.0],
      "ProtocolName": "CBU_DWEPI_BOLD210",
      "RepetitionTime": 2000.0,
      "Rows": 384,
      "SAR": 0.141777,
      "SamplesPerPixel": 1,
      "ScanOptions": "FS",
      "ScanningSequence": "EP",
      "SequenceName": "*epfid2d1_64",
      "SequenceVariant": "SK",
      "SeriesDescription": "CBU_DWEPI_BOLD210",
      "SeriesNumber": 10,
      "SeriesTime": "125516.906000",
      "SliceLocation": -52.583739,
      "SliceThickness": 3.0,
      "SmallestImagePixelValue": 0,
      "SoftwareVersions": "syngo MR B15",
      "SpacingBetweenSlices": 3.75,
      "SpecificCharacterSet": "ISO_IR 100",
      "StudyID": "1",
      "StudyTime": "115356.093000",
      "TransmitCoilName": "Body",
      "VariableFlipAngleFlag": "N",
      "WindowCenterWidthExplanation": "Algo1",
      "dBdt": 0.0},
    "slices": {}
  },
  "time": {
    "samples": {
      "AcquisitionNumber": [1, 2, 3, 4, 5, 6, 7, 8, 9, 10, 11, 12, 13, 14, 15, 16, 17, 18, 19, 20, 21, 22, 23, 24, 25, 26, 27, 28, 29, 30, 31, 32, 33, 34, 35, 36, 37, 38, 39, 40, 41, 42, 43, 44, 45, 46, 47, 48, 49, 50, 51, 52, 53, 54, 55, 56, 57, 58, 59, 60, 61, 62, 63, 64, 65, 66, 67, 68, 69, 70, 71, 72, 73, 74, 75, 76, 77, 78, 79, 80, 81, 82, 83, 84, 85, 86, 87, 88, 89, 90, 91, 92, 93, 94, 95, 96, 97, 98, 99, 100, 101, 102, 103, 104, 105, 106, 107, 108, 109, 110, 111, 112, 113, 114, 115, 116, 117, 118, 119, 120, 121, 122, 123, 124, 125, 126, 127, 128, 129, 130, 131, 132, 133, 134, 135, 136, 137, 138, 139, 140, 141, 142, 143, 144, 145, 146, 147, 148, 149, 150, 151, 152, 153, 154, 155, 156, 157, 158, 159, 160, 161, 162, 163, 164, 165, 166, 167, 168, 169, 170, 171, 172, 173, 174, 175, 176, 177, 178, 179, 180, 181, 182, 183, 184, 185, 186, 187, 188, 189, 190, 191, 192, 193, 194, 195, 196, 197, 198, 199, 200, 201, 202, 203, 204, 205, 206, 207, 208, 209, 210],
      "AcquisitionTime": ["125513.992500", "125516.000000", "125518.007500", "125520.015000", "125522.022500", "125524.032500", "125526.040000", "125528.047500", "125530.055000", "125532.065000", "125534.072500", "125536.080000", "125538.087500", "125540.095000", "125542.105000", "125544.112500", "125546.120000", "125548.127500", "125550.135000", "125552.145000", "125554.152500", "125556.160000", "125558.167500", "125600.177500", "125602.185000", "125604.192500", "125606.200000", "125608.207500", "125610.217500", "125612.225000", "125614.232500", "125616.240000", "125618.247500", "125620.257500", "125622.265000", "125624.272500", "125626.280000", "125628.287500", "125630.297500", "125632.305000", "125634.312500", "125636.320000", "125638.330000", "125640.337500", "125642.345000", "125644.352500", "125646.360000", "125648.370000", "125650.377500", "125652.385000", "125654.392500", "125656.400000", "125658.410000", "125700.417500", "125702.425000", "125704.432500", "125706.442500", "125708.450000", "125710.457500", "125712.465000", "125714.472500", "125716.482500", "125718.490000", "125720.497500", "125722.505000", "125724.512500", "125726.522500", "125728.530000", "125730.537500", "125732.545000", "125734.555000", "125736.562500", "125738.570000", "125740.577500", "125742.585000", "125744.595000", "125746.602500", "125748.610000", "125750.617500", "125752.625000", "125754.635000", "125756.642500", "125758.650000", "125800.657500", "125802.667500", "125804.675000", "125806.682500", "125808.690000", "125810.697500", "125812.707500", "125814.715000", "125816.722500", "125818.730000", "125820.737500", "125822.747500", "125824.755000", "125826.762500", "125828.770000", "125830.777500", "125832.787500", "125834.795000", "125836.802500", "125838.810000", "125840.820000", "125842.827500", "125844.835000", "125846.842500", "125848.850000", "125850.860000", "125852.867500", "125854.875000", "125856.882500", "125858.890000", "125900.900000", "125902.907500", "125904.915000", "125906.922500", "125908.932500", "125910.940000", "125912.947500", "125914.955000", "125916.962500", "125918.972500", "125920.980000", "125922.987500", "125924.995000", "125927.002500", "125929.012500", "125931.020000", "125933.027500", "125935.035000", "125937.045000", "125939.052500", "125941.060000", "125943.067500", "125945.075000", "125947.085000", "125949.092500", "125951.100000", "125953.107500", "125955.115000", "125957.125000", "125959.132500", "130001.140000", "130003.147500", "130005.155000", "130007.165000", "130009.172500", "130011.180000", "130013.187500", "130015.197500", "130017.205000", "130019.212500", "130021.220000", "130023.227500", "130025.237500", "130027.245000", "130029.252500", "130031.260000", "130033.267500", "130035.277500", "130037.285000", "130039.292500", "130041.300000", "130043.310000", "130045.317500", "130047.325000", "130049.332500", "130051.340000", "130053.350000", "130055.357500", "130057.365000", "130059.372500", "130101.380000", "130103.390000", "130105.397500", "130107.405000", "130109.412500", "130111.422500", "130113.430000", "130115.437500", "130117.445000", "130119.452500", "130121.462500", "130123.470000", "130125.477500", "130127.485000", "130129.492500", "130131.502500", "130133.510000", "130135.517500", "130137.525000", "130139.532500", "130141.542500", "130143.550000", "130145.557500", "130147.565000", "130149.575000", "130151.582500", "130153.590000", "130155.597500", "130157.605000", "130159.615000", "130201.622500", "130203.630000", "130205.637500", "130207.645000", "130209.655000", "130211.662500", "130213.670000"],
      "ContentTime": ["125516.921000", "125518.906000", "125520.906000", "125522.906000", "125524.906000", "125526.906000", "125528.906000", "125530.906000", "125532.906000", "125534.906000", "125536.906000", "125538.906000", "125540.906000", "125542.906000", "125544.906000", "125546.906000", "125548.906000", "125550.906000", "125552.906000", "125554.906000", "125556.906000", "125558.906000", "125600.906000", "125602.906000", "125604.906000", "125606.906000", "125608.906000", "125610.906000", "125612.906000", "125614.906000", "125616.906000", "125618.906000", "125620.906000", "125622.906000", "125624.906000", "125626.906000", "125628.906000", "125630.906000", "125632.906000", "125634.906000", "125636.906000", "125638.906000", "125640.906000", "125642.906000", "125644.906000", "125646.906000", "125648.906000", "125650.906000", "125652.906000", "125654.906000", "125656.906000", "125658.906000", "125700.906000", "125702.906000", "125704.906000", "125706.906000", "125708.906000", "125710.906000", "125712.906000", "125714.906000", "125716.906000", "125718.906000", "125720.906000", "125722.906000", "125724.906000", "125726.906000", "125728.906000", "125730.906000", "125732.906000", "125734.906000", "125736.906000", "125738.906000", "125740.906000", "125742.906000", "125744.906000", "125746.906000", "125748.906000", "125750.906000", "125752.906000", "125754.906000", "125756.906000", "125758.906000", "125800.906000", "125802.906000", "125804.906000", "125806.906000", "125808.906000", "125810.906000", "125812.906000", "125814.906000", "125816.906000", "125818.906000", "125820.906000", "125822.906000", "125824.906000", "125826.906000", "125828.906000", "125830.906000", "125832.906000", "125834.906000", "125836.906000", "125838.906000", "125840.906000", "125842.906000", "125844.906000", "125846.906000", "125848.906000", "125850.906000", "125852.906000", "125854.906000", "125856.906000", "125858.906000", "125900.906000", "125902.906000", "125904.906000", "125906.906000", "125908.906000", "125910.906000", "125912.906000", "125914.906000", "125916.906000", "125918.906000", "125920.906000", "125922.906000", "125924.906000", "125926.906000", "125928.906000", "125930.906000", "125932.906000", "125934.906000", "125936.906000", "125938.906000", "125940.906000", "125942.906000", "125944.906000", "125946.906000", "125948.906000", "125950.906000", "125952.906000", "125954.906000", "125956.906000", "125958.906000", "130000.906000", "130002.906000", "130004.906000", "130006.906000", "130008.906000", "130010.906000", "130012.906000", "130014.906000", "130016.906000", "130018.906000", "130020.906000", "130022.906000", "130024.906000", "130026.906000", "130028.906000", "130030.906000", "130032.906000", "130034.906000", "130036.906000", "130038.906000", "130040.906000", "130042.906000", "130044.906000", "130046.906000", "130048.906000", "130050.906000", "130052.906000", "130054.906000", "130056.906000", "130058.906000", "130100.906000", "130102.906000", "130104.906000", "130106.906000", "130108.906000", "130110.906000", "130112.906000", "130114.906000", "130116.906000", "130118.906000", "130120.906000", "130122.906000", "130124.906000", "130126.906000", "130128.906000", "130130.906000", "130132.906000", "130134.906000", "130136.906000", "130138.906000", "130140.906000", "130142.906000", "130144.906000", "130146.906000", "130148.906000", "130150.906000", "130152.906000", "130154.906000", "130156.906000", "130158.906000", "130200.906000", "130202.906000", "130204.906000", "130206.906000", "130208.906000", "130210.906000", "130212.906000", "130214.546000"],
      "InstanceCreationTime": ["125516.921000", "125518.906000", "125520.906000", "125522.906000", "125524.906000", "125526.906000", "125528.906000", "125530.906000", "125532.906000", "125534.906000", "125536.906000", "125538.906000", "125540.906000", "125542.906000", "125544.906000", "125546.906000", "125548.906000", "125550.906000", "125552.906000", "125554.906000", "125556.906000", "125558.906000", "125600.906000", "125602.906000", "125604.906000", "125606.906000", "125608.906000", "125610.906000", "125612.906000", "125614.906000", "125616.906000", "125618.906000", "125620.906000", "125622.906000", "125624.906000", "125626.906000", "125628.906000", "125630.906000", "125632.906000", "125634.906000", "125636.906000", "125638.906000", "125640.906000", "125642.906000", "125644.906000", "125646.906000", "125648.906000", "125650.906000", "125652.906000", "125654.906000", "125656.906000", "125658.906000", "125700.906000", "125702.906000", "125704.906000", "125706.906000", "125708.906000", "125710.906000", "125712.906000", "125714.906000", "125716.906000", "125718.906000", "125720.906000", "125722.906000", "125724.906000", "125726.906000", "125728.906000", "125730.906000", "125732.906000", "125734.906000", "125736.906000", "125738.906000", "125740.906000", "125742.906000", "125744.906000", "125746.906000", "125748.906000", "125750.906000", "125752.906000", "125754.906000", "125756.906000", "125758.906000", "125800.906000", "125802.906000", "125804.906000", "125806.906000", "125808.906000", "125810.906000", "125812.906000", "125814.906000", "125816.906000", "125818.906000", "125820.906000", "125822.906000", "125824.906000", "125826.906000", "125828.906000", "125830.906000", "125832.906000", "125834.906000", "125836.906000", "125838.906000", "125840.906000", "125842.906000", "125844.906000", "125846.906000", "125848.906000", "125850.906000", "125852.906000", "125854.906000", "125856.906000", "125858.906000", "125900.906000", "125902.906000", "125904.906000", "125906.906000", "125908.906000", "125910.906000", "125912.906000", "125914.906000", "125916.906000", "125918.906000", "125920.906000", "125922.906000", "125924.906000", "125926.906000", "125928.906000", "125930.906000", "125932.906000", "125934.906000", "125936.906000", "125938.906000", "125940.906000", "125942.906000", "125944.906000", "125946.906000", "125948.906000", "125950.906000", "125952.906000", "125954.906000", "125956.906000", "125958.906000", "130000.906000", "130002.906000", "130004.906000", "130006.906000", "130008.906000", "130010.906000", "130012.906000", "130014.906000", "130016.906000", "130018.906000", "130020.906000", "130022.906000", "130024.906000", "130026.906000", "130028.906000", "130030.906000", "130032.906000", "130034.906000", "130036.906000", "130038.906000", "130040.906000", "130042.906000", "130044.906000", "130046.906000", "130048.906000", "130050.906000", "130052.906000", "130054.906000", "130056.906000", "130058.906000", "130100.906000", "130102.906000", "130104.906000", "130106.906000", "130108.906000", "130110.906000", "130112.906000", "130114.906000", "130116.906000", "130118.906000", "130120.906000", "130122.906000", "130124.906000", "130126.906000", "130128.906000", "130130.906000", "130132.906000", "130134.906000", "130136.906000", "130138.906000", "130140.906000", "130142.906000", "130144.906000", "130146.906000", "130148.906000", "130150.906000", "130152.906000", "130154.906000", "130156.906000", "130158.906000", "130200.906000", "130202.906000", "130204.906000", "130206.906000", "130208.906000", "130210.906000", "130212.906000", "130214.546000"],
      "InstanceNumber": [1, 2, 3, 4, 5, 6, 7, 8, 9, 10, 11, 12, 13, 14, 15, 16, 17, 18, 19, 20, 21, 22, 23, 24, 25, 26, 27, 28, 29, 30, 31, 32, 33, 34, 35, 36, 37, 38, 39, 40, 41, 42, 43, 44, 45, 46, 47, 48, 49, 50, 51, 52, 53, 54, 55, 56, 57, 58, 59, 60, 61, 62, 63, 64, 65, 66, 67, 68, 69, 70, 71, 72, 73, 74, 75, 76, 77, 78, 79, 80, 81, 82, 83, 84, 85, 86, 87, 88, 89, 90, 91, 92, 93, 94, 95, 96, 97, 98, 99, 100, 101, 102, 103, 104, 105, 106, 107, 108, 109, 110, 111, 112, 113, 114, 115, 116, 117, 118, 119, 120, 121, 122, 123, 124, 125, 126, 127, 128, 129, 130, 131, 132, 133, 134, 135, 136, 137, 138, 139, 140, 141, 142, 143, 144, 145, 146, 147, 148, 149, 150, 151, 152, 153, 154, 155, 156, 157, 158, 159, 160, 161, 162, 163, 164, 165, 166, 167, 168, 169, 170, 171, 172, 173, 174, 175, 176, 177, 178, 179, 180, 181, 182, 183, 184, 185, 186, 187, 188, 189, 190, 191, 192, 193, 194, 195, 196, 197, 198, 199, 200, 201, 202, 203, 204, 205, 206, 207, 208, 209, 210],
      "LargestImagePixelValue": [1847, 1774, 1723, 1740, 1733, 1735, 1726, 1739, 1728, 1747, 1730, 1746, 1741, 1765, 1754, 1726, 1774, 1772, 1720, 1741, 1741, 1726, 1740, 1735, 1743, 1755, 1798, 1718, 1732, 1707, 1735, 1721, 1730, 1721, 1711, 1723, 1722, 1720, 1733, 1738, 1762, 1751, 1719, 1992, 1723, 1735, 1742, 1719, 1967, 1741, 1740, 1730, 1709, 1959, 1726, 1727, 1716, 1693, 1714, 1735, 1974, 1711, 1745, 1696, 1699, 1726, 1727, 1736, 1712, 1704, 1695, 1683, 1688, 1684, 1714, 1731, 1713, 1722, 1716, 1699, 1719, 1762, 1818, 1721, 1908, 1696, 1696, 1687, 1690, 1683, 1696, 1706, 1681, 1680, 1687, 1824, 1671, 1685, 1678, 1665, 1719, 1694, 1695, 1681, 1684, 1690, 1698, 1721, 1778, 1886, 1646, 1680, 1678, 1671, 1647, 1827, 1864, 1642, 1641, 1659, 1653, 1632, 1683, 1685, 1733, 1788, 1785, 2020, 1653, 1625, 1697, 1638, 1637, 1661, 1659, 1667, 1653, 1817, 1731, 1664, 1653, 1671, 1671, 1688, 1686, 1682, 1680, 1650, 1671, 1666, 1656, 1813, 1650, 1777, 1713, 1664, 1624, 1654, 1639, 1656, 1801, 1675, 1623, 1636, 1651, 1642, 1766, 1630, 1623, 1903, 1694, 1627, 1699, 1688, 1770, 1630, 1605, 1612, 1598, 1684, 1661, 1594, 1773, 1709, 1596, 1614, 1621, 1618, 1617, 1610, 1607, 1609, 1690, 1722, 1732, 1862, 1721, 1620, 1602, 1605, 1623, 1868, 1667, 1692, 1632, 1609, 1640, 1629, 1672, 1681],
      "WindowCenter": [731.0, 729.0, 729.0, 729.0, 730.0, 730.0, 729.0, 729.0, 730.0, 732.0, 733.0, 733.0, 733.0, 733.0, 733.0, 733.0, 733.0, 733.0, 732.0, 732.0, 732.0, 732.0, 732.0, 732.0, 733.0, 733.0, 732.0, 731.0, 731.0, 730.0, 731.0, 731.0, 731.0, 731.0, 730.0, 730.0, 731.0, 731.0, 731.0, 731.0, 732.0, 733.0, 732.0, 733.0, 731.0, 732.0, 733.0, 733.0, 734.0, 732.0, 732.0, 732.0, 732.0, 733.0, 733.0, 733.0, 733.0, 732.0, 732.0, 733.0, 735.0, 732.0, 731.0, 730.0, 730.0, 732.0, 733.0, 733.0, 732.0, 731.0, 731.0, 731.0, 732.0, 731.0, 732.0, 733.0, 733.0, 733.0, 732.0, 732.0, 733.0, 734.0, 735.0, 733.0, 733.0, 731.0, 730.0, 730.0, 732.0, 732.0, 732.0, 732.0, 732.0, 732.0, 732.0, 732.0, 731.0, 731.0, 731.0, 732.0, 731.0, 731.0, 731.0, 731.0, 731.0, 733.0, 734.0, 733.0, 732.0, 732.0, 731.0, 733.0, 733.0, 733.0, 732.0, 731.0, 732.0, 731.0, 731.0, 732.0, 732.0, 732.0, 733.0, 734.0, 734.0, 732.0, 731.0, 732.0, 731.0, 731.0, 731.0, 730.0, 730.0, 731.0, 731.0, 732.0, 732.0, 733.0, 732.0, 732.0, 733.0, 733.0, 733.0, 734.0, 733.0, 733.0, 733.0, 733.0, 734.0, 735.0, 735.0, 735.0, 733.0, 734.0, 734.0, 733.0, 732.0, 732.0, 732.0, 732.0, 733.0, 733.0, 732.0, 732.0, 733.0, 733.0, 732.0, 731.0, 731.0, 732.0, 733.0, 734.0, 734.0, 732.0, 732.0, 731.0, 731.0, 731.0, 730.0, 730.0, 730.0, 730.0, 731.0, 731.0, 731.0, 731.0, 731.0, 732.0, 733.0, 733.0, 734.0, 735.0, 735.0, 734.0, 733.0, 734.0, 734.0, 733.0, 732.0, 731.0, 732.0, 734.0, 733.0, 733.0, 732.0, 731.0, 732.0, 733.0, 736.0, 737.0],
      "WindowWidth": [1549.0, 1544.0, 1545.0, 1545.0, 1546.0, 1545.0, 1544.0, 1544.0, 1547.0, 1551.0, 1554.0, 1555.0, 1553.0, 1553.0, 1555.0, 1554.0, 1555.0, 1553.0, 1551.0, 1551.0, 1551.0, 1550.0, 1550.0, 1551.0, 1553.0, 1553.0, 1552.0, 1549.0, 1548.0, 1547.0, 1550.0, 1550.0, 1549.0, 1548.0, 1547.0, 1547.0, 1548.0, 1548.0, 1548.0, 1549.0, 1552.0, 1555.0, 1551.0, 1554.0, 1550.0, 1551.0, 1555.0, 1554.0, 1556.0, 1551.0, 1552.0, 1552.0, 1552.0, 1555.0, 1553.0, 1554.0, 1553.0, 1552.0, 1552.0, 1555.0, 1558.0, 1551.0, 1548.0, 1545.0, 1548.0, 1552.0, 1553.0, 1553.0, 1551.0, 1550.0, 1549.0, 1550.0, 1550.0, 1549.0, 1551.0, 1553.0, 1555.0, 1554.0, 1552.0, 1552.0, 1555.0, 1557.0, 1558.0, 1555.0, 1553.0, 1548.0, 1547.0, 1547.0, 1551.0, 1551.0, 1552.0, 1552.0, 1552.0, 1552.0, 1552.0, 1551.0, 1548.0, 1549.0, 1549.0, 1550.0, 1550.0, 1549.0, 1548.0, 1549.0, 1549.0, 1553.0, 1556.0, 1553.0, 1552.0, 1551.0, 1550.0, 1553.0, 1554.0, 1554.0, 1550.0, 1550.0, 1551.0, 1550.0, 1549.0, 1551.0, 1550.0, 1551.0, 1554.0, 1557.0, 1555.0, 1551.0, 1549.0, 1551.0, 1548.0, 1549.0, 1549.0, 1546.0, 1547.0, 1548.0, 1549.0, 1552.0, 1552.0, 1553.0, 1552.0, 1552.0, 1554.0, 1555.0, 1555.0, 1555.0, 1554.0, 1554.0, 1553.0, 1554.0, 1555.0, 1558.0, 1558.0, 1559.0, 1555.0, 1556.0, 1556.0, 1553.0, 1552.0, 1551.0, 1551.0, 1552.0, 1554.0, 1552.0, 1551.0, 1551.0, 1553.0, 1553.0, 1552.0, 1550.0, 1548.0, 1552.0, 1553.0, 1555.0, 1555.0, 1551.0, 1552.0, 1549.0, 1549.0, 1549.0, 1546.0, 1546.0, 1547.0, 1546.0, 1549.0, 1548.0, 1548.0, 1548.0, 1549.0, 1551.0, 1553.0, 1554.0, 1556.0, 1559.0, 1559.0, 1557.0, 1555.0, 1555.0, 1556.0, 1553.0, 1550.0, 1550.0, 1552.0, 1556.0, 1554.0, 1554.0, 1551.0, 1550.0, 1550.0, 1554.0, 1562.0, 1565.0]
    },
    "slices": {}
  }
}