{
  "AcquisitionMatrixPE": 64,
  "AcquisitionNumber": 1,
  "AcquisitionTime": "12:02:4.707500",
  "BandwidthPerPixelPhaseEncode": 30.637,
  "BaseResolution": 64,
  "BidsGuess": [
    "func",
    "_acq-epfid2_dir-AP_run-3_bold"
],
  "CoilCombinationMethod": "Sum of Squares",
  "CoilString": "C:HEA;HEP",
  "ConversionSoftware": "dcm2niix",
  "ConversionSoftwareVersion": "v1.0.20240202",
  "DerivedVendorReportedEchoSpacing": 0.000510004,
  "DeviceSerialNumber": "35119",
  "DwellTime": 3.5e-06,
  "EchoTime": 0.03,
  "EffectiveEchoSpacing": 0.000510004,
  "FlipAngle": 78,
  "HeudiconvVersion": "1.1.6",
  "ImageComments": "V",
  "ImageOrientationPatientDICOM": [1, 0, 0, 0, 0.904083, -0.427358],
  "ImageOrientationText": "Tra>Cor(-25.3)",
  "ImageType": [
    "ORIGINAL",
    "PRIMARY",
    "M",
    "ND",
    "MOSAIC"
],
  "ImagingFrequency": 123.251945,
  "InPlanePhaseEncodingDirectionDICOM": "COL",
  "InstitutionAddress": "Chaucer Road  15,Cambridge,UK,GB,CB2 2EF",
  "InstitutionName": "MRC-CBU",
  "MRAcquisitionType": "2D",
  "MagneticFieldStrength": 3,
  "Manufacturer": "Siemens",
  "ManufacturersModelName": "TrioTim",
  "MatrixCoilMode": "SENSE",
  "Modality": "MR",
  "NonlinearGradientCorrection": false,
  "PartialFourier": 1,
  "PatientPosition": "HFS",
  "PercentPhaseFOV": 100,
  "PercentSampling": 100,
  "PhaseEncodingDirection": "j-",
  "PhaseEncodingSteps": 64,
  "PhaseResolution": 1,
  "PixelBandwidth": 2230,
  "ProcedureStepDescription": "CBU^Neuroimaging",
  "ProtocolName": "CBU_DWEPI_BOLD210",
  "PulseSequenceDetails": "%SiemensSeq%\\ep2d_bold",
  "ReceiveCoilName": "HeadMatrix",
  "ReconMatrixPE": 64,
  "RepetitionTime": 2,
  "SAR": 0.141777,
  "ScanOptions": "FS",
  "ScanningSequence": "EP",
  "SequenceName": "*epfid2d1_64",
  "SequenceVariant": "SK",
  "SeriesDescription": "CBU_DWEPI_BOLD210",
  "SeriesNumber": 3,
  "ShimSetting": [-7779, -8837, -2256, 687, 190, -7, -8, 38],
  "SliceThickness": 3,
  "SliceTiming": [0, 1.035, 0.0625, 1.095, 0.1225, 1.1575, 0.1825, 1.2175, 0.245, 1.2775, 0.305, 1.34, 0.365, 1.4, 0.4275, 1.46, 0.4875, 1.5225, 0.5475, 1.5825, 0.61, 1.6425, 0.67, 1.705, 0.73, 1.765, 0.7925, 1.825, 0.8525, 1.8875, 0.9125, 1.9475, 0.975],
  "SoftwareVersions": "syngo MR B15",
  "SpacingBetweenSlices": 3.75,
  "StationName": "MRC35119",
  "TaskName": "faceprocessing",
  "TotalReadoutTime": 0.0321303,
  "TxRefAmp": 317.273,
  "dcmmeta_affine": [
    [-3.0, 0.0, 0.0, 98.53389739990234],
    [0.0, 2.7122490406036377, -1.6025924682617188, -51.0002555847168],
    [0.0, 1.282073974609375, 3.3903112411499023, -82.27018737792969],
    [0.0, 0.0, 0.0, 1.0]
],
  "dcmmeta_reorient_transform": [
    [0.0, -1.0, 0.0, 63.0],
    [1.0, 0.0, 0.0, 0.0],
    [0.0, 0.0, 1.0, 0.0],
    [0.0, 0.0, 0.0, 1.0]
],
  "dcmmeta_shape": [64, 64, 33, 210],
  "dcmmeta_slice_dim": 2,
  "dcmmeta_version": 0.6,
  "global": {
    "const": {
      "AcquisitionMatrix": [64, 0, 0, 64],
      "AngioFlag": "N",
      "BitsAllocated": 16,
      "BitsStored": 12,
      "Columns": 384,
      "EchoNumbers": 1,
      "EchoTime": 30.0,
      "EchoTrainLength": 1,
      "FlipAngle": 78.0,
      "HighBit": 11,
      "ImageOrientationPatient": [1.0, 0.0, 0.0, 0.0, 0.904083, -0.427358],
      "ImagePositionPatient": [-578.533898, -553.831271, 203.632315],
      "ImageType": [
        "ORIGINAL",
        "PRIMARY",
        "M",
        "ND",
        "MOSAIC"
],
      "ImagedNucleus": "1H",
      "ImagingFrequency": 123.251945,
      "InPlanePhaseEncodingDirection": "COL",
      "MRAcquisitionType": "2D",
      "MagneticFieldStrength": 3.0,
      "Manufacturer": "SIEMENS",
      "ManufacturerModelName": "TrioTim",
      "Modality": "MR",
      "NumberOfAverages": 1.0,
      "NumberOfPhaseEncodingSteps": 64,
      "PercentPhaseFieldOfView": 100.0,
      "PercentSampling": 100.0,
      "PerformedProcedureStepStartTime": "115356.140000",
      "PhotometricInterpretation": "MONOCHROME2",
      "PixelAspectRatio": [1, 1],
      "PixelBandwidth": 2230.0,
      "PixelRepresentation": 0,
      "PixelSpacing": [3.0, 3.0],
      "ProtocolName": "CBU_DWEPI_BOLD210",
      "RepetitionTime": 2000.0,
      "Rows": 384,
      "SAR": 0.141777,
      "SamplesPerPixel": 1,
      "ScanOptions": "FS",
      "ScanningSequence": "EP",
      "SequenceName": "*epfid2d1_64",
      "SequenceVariant": "SK",
      "SeriesDescription": "CBU_DWEPI_BOLD210",
      "SeriesNumber": 3,
      "SeriesTime": "120207.875000",
      "SliceLocation": -52.583739,
      "SliceThickness": 3.0,
      "SmallestImagePixelValue": 0,
      "SoftwareVersions": "syngo MR B15",
      "SpacingBetweenSlices": 3.75,
      "SpecificCharacterSet": "ISO_IR 100",
      "StudyID": "1",
      "StudyTime": "115356.093000",
      "TransmitCoilName": "Body",
      "VariableFlipAngleFlag": "N",
      "WindowCenterWidthExplanation": "Algo1",
      "dBdt": 0.0},
    "slices": {}
  },
  "time": {
    "samples": {
      "AcquisitionNumber": [1, 2, 3, 4, 5, 6, 7, 8, 9, 10, 11, 12, 13, 14, 15, 16, 17, 18, 19, 20, 21, 22, 23, 24, 25, 26, 27, 28, 29, 30, 31, 32, 33, 34, 35, 36, 37, 38, 39, 40, 41, 42, 43, 44, 45, 46, 47, 48, 49, 50, 51, 52, 53, 54, 55, 56, 57, 58, 59, 60, 61, 62, 63, 64, 65, 66, 67, 68, 69, 70, 71, 72, 73, 74, 75, 76, 77, 78, 79, 80, 81, 82, 83, 84, 85, 86, 87, 88, 89, 90, 91, 92, 93, 94, 95, 96, 97, 98, 99, 100, 101, 102, 103, 104, 105, 106, 107, 108, 109, 110, 111, 112, 113, 114, 115, 116, 117, 118, 119, 120, 121, 122, 123, 124, 125, 126, 127, 128, 129, 130, 131, 132, 133, 134, 135, 136, 137, 138, 139, 140, 141, 142, 143, 144, 145, 146, 147, 148, 149, 150, 151, 152, 153, 154, 155, 156, 157, 158, 159, 160, 161, 162, 163, 164, 165, 166, 167, 168, 169, 170, 171, 172, 173, 174, 175, 176, 177, 178, 179, 180, 181, 182, 183, 184, 185, 186, 187, 188, 189, 190, 191, 192, 193, 194, 195, 196, 197, 198, 199, 200, 201, 202, 203, 204, 205, 206, 207, 208, 209, 210],
      "AcquisitionTime": ["120204.707500", "120206.715000", "120208.725000", "120210.732500", "120212.740000", "120214.747500", "120216.755000", "120218.765000", "120220.772500", "120222.780000", "120224.787500", "120226.797500", "120228.805000", "120230.812500", "120232.820000", "120234.827500", "120236.837500", "120238.845000", "120240.852500", "120242.860000", "120244.867500", "120246.877500", "120248.885000", "120250.892500", "120252.900000", "120254.910000", "120256.917500", "120258.925000", "120300.932500", "120302.940000", "120304.950000", "120306.957500", "120308.965000", "120310.972500", "120312.980000", "120314.990000", "120316.997500", "120319.005000", "120321.012500", "120323.020000", "120325.030000", "120327.037500", "120329.045000", "120331.052500", "120333.062500", "120335.070000", "120337.077500", "120339.085000", "120341.092500", "120343.102500", "120345.110000", "120347.117500", "120349.125000", "120351.132500", "120353.142500", "120355.150000", "120357.157500", "120359.165000", "120401.175000", "120403.182500", "120405.190000", "120407.197500", "120409.205000", "120411.215000", "120413.222500", "120415.230000", "120417.237500", "120419.245000", "120421.255000", "120423.262500", "120425.270000", "120427.277500", "120429.287500", "120431.295000", "120433.302500", "120435.310000", "120437.317500", "120439.327500", "120441.335000", "120443.342500", "120445.350000", "120447.357500", "120449.367500", "120451.375000", "120453.382500", "120455.390000", "120457.397500", "120459.407500", "120501.415000", "120503.422500", "120505.430000", "120507.440000", "120509.447500", "120511.455000", "120513.462500", "120515.470000", "120517.480000", "120519.487500", "120521.495000", "120523.502500", "120525.510000", "120527.520000", "120529.527500", "120531.535000", "120533.542500", "120535.552500", "120537.560000", "120539.567500", "120541.575000", "120543.582500", "120545.592500", "120547.600000", "120549.607500", "120551.615000", "120553.622500", "120555.632500", "120557.640000", "120559.647500", "120601.655000", "120603.665000", "120605.672500", "120607.680000", "120609.687500", "120611.695000", "120613.705000", "120615.712500", "120617.720000", "120619.727500", "120621.735000", "120623.745000", "120625.752500", "120627.760000", "120629.767500", "120631.775000", "120633.785000", "120635.792500", "120637.800000", "120639.807500", "120641.817500", "120643.825000", "120645.832500", "120647.840000", "120649.847500", "120651.857500", "120653.865000", "120655.872500", "120657.880000", "120659.887500", "120701.897500", "120703.905000", "120705.912500", "120707.920000", "120709.930000", "120711.937500", "120713.945000", "120715.952500", "120717.960000", "120719.970000", "120721.977500", "120723.985000", "120725.992500", "120728.000000", "120730.010000", "120732.017500", "120734.025000", "120736.032500", "120738.042500", "120740.050000", "120742.057500", "120744.065000", "120746.072500", "120748.082500", "120750.090000", "120752.097500", "120754.105000", "120756.112500", "120758.122500", "120800.130000", "120802.137500", "120804.145000", "120806.155000", "120808.162500", "120810.170000", "120812.177500", "120814.185000", "120816.195000", "120818.202500", "120820.210000", "120822.217500", "120824.225000", "120826.235000", "120828.242500", "120830.250000", "120832.257500", "120834.265000", "120836.275000", "120838.282500", "120840.290000", "120842.297500", "120844.307500", "120846.315000", "120848.322500", "120850.330000", "120852.337500", "120854.347500", "120856.355000", "120858.362500", "120900.370000", "120902.377500", "120904.387500"],
      "ContentTime": ["120207.890000", "120210.375000", "120211.875000", "120213.875000", "120215.875000", "120217.875000", "120219.875000", "120221.875000", "120223.875000", "120225.875000", "120227.875000", "120229.875000", "120231.875000", "120234.375000", "120235.875000", "120237.875000", "120240.375000", "120242.375000", "120243.875000", "120245.859000", "120247.859000", "120249.859000", "120251.859000", "120253.859000", "120255.859000", "120257.859000", "120259.859000", "120301.859000", "120303.859000", "120305.859000", "120307.859000", "120309.859000", "120311.859000", "120313.859000", "120315.859000", "120317.859000", "120319.859000", "120321.859000", "120324.359000", "120325.859000", "120327.859000", "120329.859000", "120331.859000", "120333.859000", "120335.859000", "120337.859000", "120339.859000", "120341.859000", "120343.859000", "120346.359000", "120347.859000", "120349.859000", "120351.859000", "120353.859000", "120355.859000", "120357.859000", "120359.859000", "120401.859000", "120403.859000", "120405.859000", "120408.359000", "120409.859000", "120411.859000", "120413.859000", "120415.859000", "120417.859000", "120419.859000", "120421.859000", "120423.859000", "120425.859000", "120427.859000", "120429.875000", "120431.859000", "120433.859000", "120435.859000", "120437.859000", "120439.859000", "120441.859000", "120443.859000", "120445.859000", "120447.859000", "120449.859000", "120452.359000", "120453.859000", "120455.859000", "120457.859000", "120459.859000", "120501.859000", "120503.859000", "120505.859000", "120507.859000", "120509.859000", "120511.859000", "120513.859000", "120515.859000", "120517.859000", "120519.859000", "120521.859000", "120523.859000", "120525.859000", "120527.859000", "120529.859000", "120531.859000", "120533.859000", "120535.859000", "120537.859000", "120539.859000", "120541.859000", "120543.859000", "120545.859000", "120547.859000", "120549.859000", "120551.859000", "120553.859000", "120555.859000", "120557.859000", "120559.859000", "120601.859000", "120603.859000", "120606.359000", "120607.859000", "120609.859000", "120611.859000", "120613.859000", "120615.859000", "120617.859000", "120620.359000", "120622.359000", "120623.859000", "120625.859000", "120627.859000", "120629.859000", "120631.859000", "120633.859000", "120635.859000", "120637.859000", "120639.859000", "120641.859000", "120643.859000", "120645.859000", "120647.859000", "120649.859000", "120651.859000", "120653.859000", "120656.359000", "120657.859000", "120659.859000", "120701.859000", "120703.859000", "120705.859000", "120707.859000", "120709.859000", "120711.859000", "120713.859000", "120715.859000", "120717.859000", "120719.859000", "120722.359000", "120723.859000", "120725.859000", "120727.859000", "120729.859000", "120731.859000", "120733.859000", "120735.859000", "120737.859000", "120739.859000", "120741.859000", "120743.859000", "120745.859000", "120747.859000", "120749.859000", "120751.859000", "120753.859000", "120755.859000", "120757.859000", "120759.859000", "120801.859000", "120803.859000", "120805.859000", "120807.859000", "120809.859000", "120811.859000", "120813.859000", "120815.859000", "120817.859000", "120819.859000", "120821.859000", "120823.859000", "120825.859000", "120827.859000", "120829.859000", "120831.859000", "120833.859000", "120835.859000", "120837.859000", "120839.859000", "120841.859000", "120843.859000", "120845.859000", "120847.859000", "120849.859000", "120851.859000", "120854.359000", "120855.859000", "120857.859000", "120859.859000", "120901.859000", "120903.859000", "120905.796000"],
      "InstanceCreationTime": ["120207.890000", "120210.375000", "120211.875000", "120213.875000", "120215.875000", "120217.875000", "120219.875000", "120221.875000", "120223.875000", "120225.875000", "120227.875000", "120229.875000", "120231.875000", "120234.375000", "120235.875000", "120237.875000", "120240.375000", "120242.375000", "120243.875000", "120245.859000", "120247.859000", "120249.859000", "120251.859000", "120253.859000", "120255.859000", "120257.859000", "120259.859000", "120301.859000", "120303.859000", "120305.859000", "120307.859000", "120309.859000", "120311.859000", "120313.859000", "120315.859000", "120317.859000", "120319.859000", "120321.859000", "120324.359000", "120325.859000", "120327.859000", "120329.859000", "120331.859000", "120333.859000", "120335.859000", "120337.859000", "120339.859000", "120341.859000", "120343.859000", "120346.359000", "120347.859000", "120349.859000", "120351.859000", "120353.859000", "120355.859000", "120357.859000", "120359.859000", "120401.859000", "120403.859000", "120405.859000", "120408.359000", "120409.859000", "120411.859000", "120413.859000", "120415.859000", "120417.859000", "120419.859000", "120421.859000", "120423.859000", "120425.859000", "120427.859000", "120429.875000", "120431.859000", "120433.859000", "120435.859000", "120437.859000", "120439.859000", "120441.859000", "120443.859000", "120445.859000", "120447.859000", "120449.859000", "120452.359000", "120453.859000", "120455.859000", "120457.859000", "120459.859000", "120501.859000", "120503.859000", "120505.859000", "120507.859000", "120509.859000", "120511.859000", "120513.859000", "120515.859000", "120517.859000", "120519.859000", "120521.859000", "120523.859000", "120525.859000", "120527.859000", "120529.859000", "120531.859000", "120533.859000", "120535.859000", "120537.859000", "120539.859000", "120541.859000", "120543.859000", "120545.859000", "120547.859000", "120549.859000", "120551.859000", "120553.859000", "120555.859000", "120557.859000", "120559.859000", "120601.859000", "120603.859000", "120606.359000", "120607.859000", "120609.859000", "120611.859000", "120613.859000", "120615.859000", "120617.859000", "120620.359000", "120622.359000", "120623.859000", "120625.859000", "120627.859000", "120629.859000", "120631.859000", "120633.859000", "120635.859000", "120637.859000", "120639.859000", "120641.859000", "120643.859000", "120645.859000", "120647.859000", "120649.859000", "120651.859000", "120653.859000", "120656.359000", "120657.859000", "120659.859000", "120701.859000", "120703.859000", "120705.859000", "120707.859000", "120709.859000", "120711.859000", "120713.859000", "120715.859000", "120717.859000", "120719.859000", "120722.359000", "120723.859000", "120725.859000", "120727.859000", "120729.859000", "120731.859000", "120733.859000", "120735.859000", "120737.859000", "120739.859000", "120741.859000", "120743.859000", "120745.859000", "120747.859000", "120749.859000", "120751.859000", "120753.859000", "120755.859000", "120757.859000", "120759.859000", "120801.859000", "120803.859000", "120805.859000", "120807.859000", "120809.859000", "120811.859000", "120813.859000", "120815.859000", "120817.859000", "120819.859000", "120821.859000", "120823.859000", "120825.859000", "120827.859000", "120829.859000", "120831.859000", "120833.859000", "120835.859000", "120837.859000", "120839.859000", "120841.859000", "120843.859000", "120845.859000", "120847.859000", "120849.859000", "120851.859000", "120854.359000", "120855.859000", "120857.859000", "120859.859000", "120901.859000", "120903.859000", "120905.796000"],
      "InstanceNumber": [1, 2, 3, 4, 5, 6, 7, 8, 9, 10, 11, 12, 13, 14, 15, 16, 17, 18, 19, 20, 21, 22, 23, 24, 25, 26, 27, 28, 29, 30, 31, 32, 33, 34, 35, 36, 37, 38, 39, 40, 41, 42, 43, 44, 45, 46, 47, 48, 49, 50, 51, 52, 53, 54, 55, 56, 57, 58, 59, 60, 61, 62, 63, 64, 65, 66, 67, 68, 69, 70, 71, 72, 73, 74, 75, 76, 77, 78, 79, 80, 81, 82, 83, 84, 85, 86, 87, 88, 89, 90, 91, 92, 93, 94, 95, 96, 97, 98, 99, 100, 101, 102, 103, 104, 105, 106, 107, 108, 109, 110, 111, 112, 113, 114, 115, 116, 117, 118, 119, 120, 121, 122, 123, 124, 125, 126, 127, 128, 129, 130, 131, 132, 133, 134, 135, 136, 137, 138, 139, 140, 141, 142, 143, 144, 145, 146, 147, 148, 149, 150, 151, 152, 153, 154, 155, 156, 157, 158, 159, 160, 161, 162, 163, 164, 165, 166, 167, 168, 169, 170, 171, 172, 173, 174, 175, 176, 177, 178, 179, 180, 181, 182, 183, 184, 185, 186, 187, 188, 189, 190, 191, 192, 193, 194, 195, 196, 197, 198, 199, 200, 201, 202, 203, 204, 205, 206, 207, 208, 209, 210],
      "LargestImagePixelValue": [1776, 1813, 1770, 1677, 1646, 1636, 1749, 1684, 1655, 1715, 1769, 1805, 1681, 1664, 1659, 1770, 1708, 1742, 1678, 1745, 1700, 1659, 1697, 1674, 1672, 1672, 1683, 1743, 1729, 1663, 1668, 1643, 1680, 1748, 1674, 1671, 1716, 1740, 1782, 1685, 1744, 1701, 1680, 1709, 1694, 1681, 1714, 1676, 1687, 1695, 1682, 1717, 1711, 1697, 1705, 1664, 1723, 1692, 1688, 1698, 1698, 1709, 1684, 1683, 1700, 1701, 1716, 1702, 1710, 1697, 1699, 1679, 1704, 1712, 1692, 1754, 1683, 1702, 1673, 1683, 1701, 1680, 1804, 1756, 1710, 1712, 1688, 1704, 1688, 1702, 1695, 1698, 1696, 1710, 1676, 1710, 1708, 1683, 1690, 1693, 1705, 1696, 1693, 1700, 1720, 1693, 1702, 1700, 1700, 1693, 1694, 1685, 1712, 1717, 1728, 1699, 1696, 1694, 1692, 1734, 1730, 1770, 1685, 1673, 1863, 1685, 1681, 1696, 1696, 1688, 1766, 1779, 1692, 1734, 1784, 1702, 1684, 1707, 1705, 1687, 1702, 1754, 1701, 1689, 1744, 1920, 1692, 1682, 1674, 1668, 1901, 1744, 1701, 1773, 1731, 1697, 1721, 1791, 1850, 1752, 1725, 1694, 1738, 1732, 1692, 1724, 1707, 1674, 1676, 1709, 1704, 1718, 1705, 1844, 1799, 1729, 1696, 1701, 1689, 1679, 1698, 1784, 1702, 1707, 1696, 1675, 1709, 1703, 1689, 1663, 1686, 1752, 1691, 1706, 1706, 1725, 1815, 1789, 1713, 1835, 1715, 1704, 1688, 1717, 1678, 1723, 1701, 1708, 1705, 1710],
      "WindowCenter": [722.0, 719.0, 717.0, 716.0, 718.0, 719.0, 718.0, 718.0, 717.0, 718.0, 718.0, 717.0, 717.0, 716.0, 716.0, 717.0, 717.0, 717.0, 716.0, 716.0, 716.0, 716.0, 715.0, 715.0, 715.0, 716.0, 716.0, 716.0, 715.0, 716.0, 717.0, 718.0, 717.0, 717.0, 716.0, 716.0, 717.0, 716.0, 717.0, 716.0, 717.0, 716.0, 716.0, 715.0, 715.0, 715.0, 716.0, 715.0, 715.0, 716.0, 716.0, 717.0, 717.0, 716.0, 717.0, 718.0, 718.0, 717.0, 716.0, 715.0, 716.0, 716.0, 716.0, 716.0, 716.0, 716.0, 716.0, 717.0, 717.0, 718.0, 718.0, 718.0, 718.0, 718.0, 717.0, 717.0, 718.0, 718.0, 718.0, 717.0, 717.0, 718.0, 718.0, 718.0, 717.0, 717.0, 717.0, 718.0, 718.0, 718.0, 719.0, 719.0, 718.0, 719.0, 719.0, 719.0, 719.0, 719.0, 718.0, 717.0, 717.0, 716.0, 717.0, 717.0, 717.0, 716.0, 717.0, 717.0, 718.0, 719.0, 719.0, 720.0, 719.0, 719.0, 718.0, 718.0, 719.0, 720.0, 719.0, 719.0, 719.0, 720.0, 719.0, 718.0, 719.0, 718.0, 718.0, 718.0, 718.0, 719.0, 720.0, 720.0, 719.0, 719.0, 719.0, 719.0, 720.0, 720.0, 719.0, 719.0, 718.0, 719.0, 719.0, 719.0, 719.0, 719.0, 718.0, 719.0, 721.0, 722.0, 722.0, 720.0, 719.0, 719.0, 720.0, 721.0, 721.0, 720.0, 720.0, 719.0, 720.0, 720.0, 719.0, 719.0, 719.0, 720.0, 721.0, 721.0, 720.0, 719.0, 719.0, 720.0, 722.0, 722.0, 721.0, 719.0, 718.0, 719.0, 721.0, 722.0, 720.0, 720.0, 720.0, 720.0, 722.0, 722.0, 721.0, 721.0, 721.0, 724.0, 724.0, 723.0, 722.0, 721.0, 721.0, 722.0, 722.0, 721.0, 720.0, 720.0, 719.0, 719.0, 720.0, 722.0, 721.0, 720.0, 720.0, 721.0, 723.0, 723.0],
      "WindowWidth": [1526.0, 1518.0, 1514.0, 1513.0, 1517.0, 1519.0, 1518.0, 1517.0, 1514.0, 1516.0, 1516.0, 1516.0, 1514.0, 1513.0, 1512.0, 1515.0, 1515.0, 1515.0, 1513.0, 1513.0, 1512.0, 1512.0, 1511.0, 1511.0, 1511.0, 1511.0, 1511.0, 1511.0, 1510.0, 1511.0, 1515.0, 1517.0, 1515.0, 1514.0, 1513.0, 1513.0, 1514.0, 1513.0, 1514.0, 1513.0, 1514.0, 1513.0, 1512.0, 1509.0, 1509.0, 1511.0, 1511.0, 1510.0, 1509.0, 1512.0, 1514.0, 1515.0, 1513.0, 1513.0, 1514.0, 1518.0, 1517.0, 1513.0, 1511.0, 1511.0, 1513.0, 1513.0, 1512.0, 1512.0, 1511.0, 1513.0, 1513.0, 1515.0, 1515.0, 1516.0, 1517.0, 1517.0, 1517.0, 1516.0, 1514.0, 1515.0, 1516.0, 1518.0, 1517.0, 1516.0, 1515.0, 1516.0, 1517.0, 1516.0, 1515.0, 1515.0, 1515.0, 1517.0, 1516.0, 1518.0, 1518.0, 1518.0, 1518.0, 1519.0, 1520.0, 1520.0, 1519.0, 1519.0, 1517.0, 1515.0, 1514.0, 1513.0, 1514.0, 1514.0, 1514.0, 1513.0, 1514.0, 1515.0, 1517.0, 1518.0, 1520.0, 1522.0, 1520.0, 1518.0, 1516.0, 1516.0, 1518.0, 1521.0, 1520.0, 1520.0, 1519.0, 1521.0, 1520.0, 1518.0, 1519.0, 1516.0, 1518.0, 1518.0, 1517.0, 1519.0, 1522.0, 1521.0, 1519.0, 1519.0, 1520.0, 1520.0, 1521.0, 1521.0, 1519.0, 1519.0, 1518.0, 1519.0, 1521.0, 1520.0, 1518.0, 1518.0, 1517.0, 1520.0, 1524.0, 1526.0, 1526.0, 1521.0, 1519.0, 1520.0, 1523.0, 1525.0, 1525.0, 1523.0, 1521.0, 1520.0, 1521.0, 1521.0, 1520.0, 1519.0, 1520.0, 1522.0, 1525.0, 1524.0, 1521.0, 1520.0, 1519.0, 1522.0, 1525.0, 1527.0, 1523.0, 1519.0, 1518.0, 1520.0, 1524.0, 1525.0, 1523.0, 1522.0, 1521.0, 1523.0, 1527.0, 1526.0, 1524.0, 1524.0, 1525.0, 1531.0, 1531.0, 1529.0, 1525.0, 1524.0, 1524.0, 1526.0, 1526.0, 1523.0, 1521.0, 1520.0, 1519.0, 1519.0, 1521.0, 1526.0, 1524.0, 1521.0, 1521.0, 1523.0, 1528.0, 1529.0]
    },
    "slices": {}
  }
}