{
  "AcquisitionMatrixPE": 64,
  "AcquisitionNumber": 1,
  "AcquisitionTime": "14:26:42.232500",
  "BandwidthPerPixelPhaseEncode": 30.637,
  "BaseResolution": 64,
  "BidsGuess": [
    "func",
    "_acq-epfid2_dir-AP_run-8_bold"
],
  "CoilCombinationMethod": "Sum of Squares",
  "CoilString": "C:HEA;HEP",
  "ConversionSoftware": "dcm2niix",
  "ConversionSoftwareVersion": "v1.0.20240202",
  "DerivedVendorReportedEchoSpacing": 0.000510004,
  "DeviceSerialNumber": "35119",
  "DwellTime": 3.5e-06,
  "EchoTime": 0.03,
  "EffectiveEchoSpacing": 0.000510004,
  "FlipAngle": 78,
  "HeudiconvVersion": "1.1.6",
  "ImageComments": "V",
  "ImageOrientationPatientDICOM": [1, 0, 0, 0, 0.882127, -0.471012],
  "ImageOrientationText": "Tra>Cor(-28.1)",
  "ImageType": [
    "ORIGINAL",
    "PRIMARY",
    "M",
    "ND",
    "MOSAIC"
],
  "ImagingFrequency": 123.251859,
  "InPlanePhaseEncodingDirectionDICOM": "COL",
  "InstitutionAddress": "Chaucer Road  15,Cambridge,UK,GB,CB2 2EF",
  "InstitutionName": "MRC-CBU",
  "MRAcquisitionType": "2D",
  "MagneticFieldStrength": 3,
  "Manufacturer": "Siemens",
  "ManufacturersModelName": "TrioTim",
  "MatrixCoilMode": "SENSE",
  "Modality": "MR",
  "NonlinearGradientCorrection": false,
  "PartialFourier": 1,
  "PatientPosition": "HFS",
  "PercentPhaseFOV": 100,
  "PercentSampling": 100,
  "PhaseEncodingDirection": "j-",
  "PhaseEncodingSteps": 64,
  "PhaseResolution": 1,
  "PixelBandwidth": 2230,
  "ProcedureStepDescription": "CBU^Neuroimaging",
  "ProtocolName": "CBU_DWEPI_BOLD210",
  "PulseSequenceDetails": "%SiemensSeq%\\ep2d_bold",
  "ReceiveCoilName": "HeadMatrix",
  "ReconMatrixPE": 64,
  "RepetitionTime": 2,
  "SAR": 0.144967,
  "ScanOptions": "FS",
  "ScanningSequence": "EP",
  "SequenceName": "*epfid2d1_64",
  "SequenceVariant": "SK",
  "SeriesDescription": "CBU_DWEPI_BOLD210",
  "SeriesNumber": 8,
  "ShimSetting": [-7826, -8719, -2019, 790, 7, -29, -65, 87],
  "SliceThickness": 3,
  "SliceTiming": [0, 1.035, 0.06, 1.095, 0.1225, 1.155, 0.1825, 1.2175, 0.2425, 1.2775, 0.305, 1.3375, 0.365, 1.4, 0.425, 1.46, 0.4875, 1.52, 0.5475, 1.5825, 0.6075, 1.6425, 0.67, 1.7025, 0.73, 1.765, 0.79, 1.825, 0.8525, 1.885, 0.9125, 1.9475, 0.9725],
  "SoftwareVersions": "syngo MR B15",
  "SpacingBetweenSlices": 3.75,
  "StationName": "MRC35119",
  "TaskName": "faceprocessing",
  "TotalReadoutTime": 0.0321303,
  "TxRefAmp": 326.846,
  "dcmmeta_affine": [
    [-3.0, 0.0, 0.0, 98.03389739990234],
    [0.0, 2.64638090133667, -1.7662949562072754, -44.47935485839844],
    [0.0, 1.4130359888076782, 3.307976245880127, -92.450927734375],
    [0.0, 0.0, 0.0, 1.0]
],
  "dcmmeta_reorient_transform": [
    [0.0, -1.0, 0.0, 63.0],
    [1.0, 0.0, 0.0, 0.0],
    [0.0, 0.0, 1.0, 0.0],
    [0.0, 0.0, 0.0, 1.0]
],
  "dcmmeta_shape": [64, 64, 33, 210],
  "dcmmeta_slice_dim": 2,
  "dcmmeta_version": 0.6,
  "global": {
    "const": {
      "AcquisitionMatrix": [64, 0, 0, 64],
      "AngioFlag": "N",
      "BitsAllocated": 16,
      "BitsStored": 12,
      "Columns": 384,
      "EchoNumbers": 1,
      "EchoTime": 30.0,
      "EchoTrainLength": 1,
      "FlipAngle": 78.0,
      "HighBit": 11,
      "ImageOrientationPatient": [1.0, 0.0, 0.0, 0.0, 0.882127, -0.471012],
      "ImagePositionPatient": [-578.033898, -545.663607, 222.656104],
      "ImageType": [
        "ORIGINAL",
        "PRIMARY",
        "M",
        "ND",
        "MOSAIC"
],
      "ImagedNucleus": "1H",
      "ImagingFrequency": 123.251859,
      "InPlanePhaseEncodingDirection": "COL",
      "MRAcquisitionType": "2D",
      "MagneticFieldStrength": 3.0,
      "Manufacturer": "SIEMENS",
      "ManufacturerModelName": "TrioTim",
      "Modality": "MR",
      "NumberOfAverages": 1.0,
      "NumberOfPhaseEncodingSteps": 64,
      "PercentPhaseFieldOfView": 100.0,
      "PercentSampling": 100.0,
      "PerformedProcedureStepStartTime": "133852.171000",
      "PhotometricInterpretation": "MONOCHROME2",
      "PixelAspectRatio": [1, 1],
      "PixelBandwidth": 2230.0,
      "PixelRepresentation": 0,
      "PixelSpacing": [3.0, 3.0],
      "ProtocolName": "CBU_DWEPI_BOLD210",
      "RepetitionTime": 2000.0,
      "Rows": 384,
      "SAR": 0.144967,
      "SamplesPerPixel": 1,
      "ScanOptions": "FS",
      "ScanningSequence": "EP",
      "SequenceName": "*epfid2d1_64",
      "SequenceVariant": "SK",
      "SeriesDescription": "CBU_DWEPI_BOLD210",
      "SeriesNumber": 8,
      "SeriesTime": "142644.921000",
      "SliceLocation": -60.603111,
      "SliceThickness": 3.0,
      "SmallestImagePixelValue": 0,
      "SoftwareVersions": "syngo MR B15",
      "SpacingBetweenSlices": 3.75,
      "SpecificCharacterSet": "ISO_IR 100",
      "StudyID": "1",
      "StudyTime": "133852.093000",
      "TransmitCoilName": "Body",
      "VariableFlipAngleFlag": "N",
      "WindowCenterWidthExplanation": "Algo1",
      "dBdt": 0.0},
    "slices": {}
  },
  "time": {
    "samples": {
      "AcquisitionNumber": [1, 2, 3, 4, 5, 6, 7, 8, 9, 10, 11, 12, 13, 14, 15, 16, 17, 18, 19, 20, 21, 22, 23, 24, 25, 26, 27, 28, 29, 30, 31, 32, 33, 34, 35, 36, 37, 38, 39, 40, 41, 42, 43, 44, 45, 46, 47, 48, 49, 50, 51, 52, 53, 54, 55, 56, 57, 58, 59, 60, 61, 62, 63, 64, 65, 66, 67, 68, 69, 70, 71, 72, 73, 74, 75, 76, 77, 78, 79, 80, 81, 82, 83, 84, 85, 86, 87, 88, 89, 90, 91, 92, 93, 94, 95, 96, 97, 98, 99, 100, 101, 102, 103, 104, 105, 106, 107, 108, 109, 110, 111, 112, 113, 114, 115, 116, 117, 118, 119, 120, 121, 122, 123, 124, 125, 126, 127, 128, 129, 130, 131, 132, 133, 134, 135, 136, 137, 138, 139, 140, 141, 142, 143, 144, 145, 146, 147, 148, 149, 150, 151, 152, 153, 154, 155, 156, 157, 158, 159, 160, 161, 162, 163, 164, 165, 166, 167, 168, 169, 170, 171, 172, 173, 174, 175, 176, 177, 178, 179, 180, 181, 182, 183, 184, 185, 186, 187, 188, 189, 190, 191, 192, 193, 194, 195, 196, 197, 198, 199, 200, 201, 202, 203, 204, 205, 206, 207, 208, 209, 210],
      "AcquisitionTime": ["142642.232500", "142644.240000", "142646.247500", "142648.255000", "142650.265000", "142652.272500", "142654.280000", "142656.287500", "142658.297500", "142700.305000", "142702.312500", "142704.320000", "142706.327500", "142708.337500", "142710.345000", "142712.352500", "142714.360000", "142716.367500", "142718.377500", "142720.385000", "142722.392500", "142724.400000", "142726.410000", "142728.417500", "142730.425000", "142732.432500", "142734.440000", "142736.450000", "142738.457500", "142740.465000", "142742.472500", "142744.480000", "142746.490000", "142748.497500", "142750.505000", "142752.512500", "142754.520000", "142756.530000", "142758.537500", "142800.545000", "142802.552500", "142804.562500", "142806.570000", "142808.577500", "142810.585000", "142812.592500", "142814.602500", "142816.610000", "142818.617500", "142820.625000", "142822.632500", "142824.642500", "142826.650000", "142828.657500", "142830.665000", "142832.675000", "142834.682500", "142836.690000", "142838.697500", "142840.705000", "142842.715000", "142844.722500", "142846.730000", "142848.737500", "142850.745000", "142852.755000", "142854.762500", "142856.770000", "142858.777500", "142900.787500", "142902.795000", "142904.802500", "142906.810000", "142908.817500", "142910.827500", "142912.835000", "142914.842500", "142916.850000", "142918.857500", "142920.867500", "142922.875000", "142924.882500", "142926.890000", "142928.900000", "142930.907500", "142932.915000", "142934.922500", "142936.930000", "142938.940000", "142940.947500", "142942.955000", "142944.962500", "142946.970000", "142948.980000", "142950.987500", "142952.995000", "142955.002500", "142957.010000", "142959.020000", "143001.027500", "143003.035000", "143005.042500", "143007.052500", "143009.060000", "143011.067500", "143013.075000", "143015.082500", "143017.092500", "143019.100000", "143021.107500", "143023.115000", "143025.122500", "143027.132500", "143029.140000", "143031.147500", "143033.155000", "143035.165000", "143037.172500", "143039.180000", "143041.187500", "143043.195000", "143045.205000", "143047.212500", "143049.220000", "143051.227500", "143053.235000", "143055.245000", "143057.252500", "143059.260000", "143101.267500", "143103.277500", "143105.285000", "143107.292500", "143109.300000", "143111.307500", "143113.317500", "143115.325000", "143117.332500", "143119.340000", "143121.347500", "143123.357500", "143125.365000", "143127.372500", "143129.380000", "143131.387500", "143133.397500", "143135.405000", "143137.412500", "143139.420000", "143141.430000", "143143.437500", "143145.445000", "143147.452500", "143149.460000", "143151.470000", "143153.477500", "143155.485000", "143157.492500", "143159.500000", "143201.510000", "143203.517500", "143205.525000", "143207.532500", "143209.542500", "143211.550000", "143213.557500", "143215.565000", "143217.572500", "143219.582500", "143221.590000", "143223.597500", "143225.605000", "143227.612500", "143229.622500", "143231.630000", "143233.637500", "143235.645000", "143237.655000", "143239.662500", "143241.670000", "143243.677500", "143245.685000", "143247.695000", "143249.702500", "143251.710000", "143253.717500", "143255.725000", "143257.735000", "143259.742500", "143301.750000", "143303.757500", "143305.765000", "143307.775000", "143309.782500", "143311.790000", "143313.797500", "143315.807500", "143317.815000", "143319.822500", "143321.830000", "143323.837500", "143325.847500", "143327.855000", "143329.862500", "143331.870000", "143333.877500", "143335.887500", "143337.895000", "143339.902500", "143341.910000"],
      "ContentTime": ["142644.921000", "142646.921000", "142648.921000", "142650.921000", "142652.921000", "142654.921000", "142656.921000", "142658.921000", "142700.921000", "142702.921000", "142705.421000", "142706.921000", "142708.921000", "142710.921000", "142712.921000", "142714.921000", "142716.921000", "142718.921000", "142720.921000", "142722.921000", "142724.921000", "142726.921000", "142728.921000", "142730.921000", "142732.921000", "142734.921000", "142736.921000", "142738.921000", "142740.921000", "142742.921000", "142744.921000", "142746.921000", "142748.921000", "142750.921000", "142752.921000", "142754.921000", "142756.921000", "142758.921000", "142800.921000", "142802.921000", "142804.921000", "142806.921000", "142808.921000", "142810.921000", "142812.921000", "142814.921000", "142816.921000", "142818.921000", "142820.921000", "142822.921000", "142824.921000", "142826.921000", "142828.921000", "142830.921000", "142832.921000", "142834.921000", "142836.921000", "142838.921000", "142840.921000", "142842.921000", "142845.421000", "142846.921000", "142848.921000", "142850.921000", "142852.921000", "142854.921000", "142856.921000", "142858.921000", "142900.921000", "142902.921000", "142904.921000", "142906.921000", "142908.921000", "142910.921000", "142912.921000", "142914.921000", "142916.921000", "142918.921000", "142920.921000", "142922.921000", "142924.921000", "142926.921000", "142928.921000", "142930.921000", "142932.921000", "142934.921000", "142936.921000", "142938.921000", "142940.921000", "142942.921000", "142944.921000", "142946.921000", "142948.921000", "142950.921000", "142952.921000", "142954.921000", "142956.921000", "142958.921000", "143000.921000", "143002.921000", "143004.921000", "143006.921000", "143008.921000", "143010.921000", "143012.921000", "143014.921000", "143016.921000", "143018.921000", "143021.421000", "143022.921000", "143024.921000", "143026.921000", "143028.921000", "143030.921000", "143032.921000", "143034.921000", "143036.921000", "143038.921000", "143040.921000", "143042.921000", "143044.921000", "143046.921000", "143048.921000", "143050.921000", "143052.921000", "143054.921000", "143056.921000", "143058.921000", "143100.921000", "143102.921000", "143104.921000", "143106.921000", "143108.921000", "143110.921000", "143112.921000", "143114.921000", "143117.421000", "143118.921000", "143120.921000", "143122.921000", "143124.921000", "143126.921000", "143128.921000", "143130.921000", "143132.921000", "143134.921000", "143136.921000", "143138.921000", "143140.921000", "143142.921000", "143144.921000", "143146.921000", "143148.921000", "143150.921000", "143152.921000", "143154.921000", "143156.921000", "143158.921000", "143200.921000", "143202.921000", "143204.921000", "143207.421000", "143208.921000", "143210.921000", "143212.921000", "143214.921000", "143216.921000", "143218.921000", "143220.921000", "143222.921000", "143224.921000", "143226.921000", "143228.921000", "143230.921000", "143232.921000", "143234.921000", "143236.921000", "143238.921000", "143240.921000", "143242.921000", "143244.921000", "143246.921000", "143248.921000", "143250.921000", "143252.921000", "143254.921000", "143256.921000", "143258.921000", "143300.921000", "143302.921000", "143304.921000", "143306.921000", "143308.921000", "143310.921000", "143312.921000", "143314.921000", "143316.921000", "143318.921000", "143320.921000", "143322.921000", "143324.921000", "143326.921000", "143328.921000", "143330.921000", "143332.921000", "143334.921000", "143336.921000", "143338.921000", "143340.921000", "143342.828000"],
      "InstanceCreationTime": ["142644.921000", "142646.921000", "142648.921000", "142650.921000", "142652.921000", "142654.921000", "142656.921000", "142658.921000", "142700.921000", "142702.921000", "142705.421000", "142706.921000", "142708.921000", "142710.921000", "142712.921000", "142714.921000", "142716.921000", "142718.921000", "142720.921000", "142722.921000", "142724.921000", "142726.921000", "142728.921000", "142730.921000", "142732.921000", "142734.921000", "142736.921000", "142738.921000", "142740.921000", "142742.921000", "142744.921000", "142746.921000", "142748.921000", "142750.921000", "142752.921000", "142754.921000", "142756.921000", "142758.921000", "142800.921000", "142802.921000", "142804.921000", "142806.921000", "142808.921000", "142810.921000", "142812.921000", "142814.921000", "142816.921000", "142818.921000", "142820.921000", "142822.921000", "142824.921000", "142826.921000", "142828.921000", "142830.921000", "142832.921000", "142834.921000", "142836.921000", "142838.921000", "142840.921000", "142842.921000", "142845.421000", "142846.921000", "142848.921000", "142850.921000", "142852.921000", "142854.921000", "142856.921000", "142858.921000", "142900.921000", "142902.921000", "142904.921000", "142906.921000", "142908.921000", "142910.921000", "142912.921000", "142914.921000", "142916.921000", "142918.921000", "142920.921000", "142922.921000", "142924.921000", "142926.921000", "142928.921000", "142930.921000", "142932.921000", "142934.921000", "142936.921000", "142938.921000", "142940.921000", "142942.921000", "142944.921000", "142946.921000", "142948.921000", "142950.921000", "142952.921000", "142954.921000", "142956.921000", "142958.921000", "143000.921000", "143002.921000", "143004.921000", "143006.921000", "143008.921000", "143010.921000", "143012.921000", "143014.921000", "143016.921000", "143018.921000", "143021.421000", "143022.921000", "143024.921000", "143026.921000", "143028.921000", "143030.921000", "143032.921000", "143034.921000", "143036.921000", "143038.921000", "143040.921000", "143042.921000", "143044.921000", "143046.921000", "143048.921000", "143050.921000", "143052.921000", "143054.921000", "143056.921000", "143058.921000", "143100.921000", "143102.921000", "143104.921000", "143106.921000", "143108.921000", "143110.921000", "143112.921000", "143114.921000", "143117.421000", "143118.921000", "143120.921000", "143122.921000", "143124.921000", "143126.921000", "143128.921000", "143130.921000", "143132.921000", "143134.921000", "143136.921000", "143138.921000", "143140.921000", "143142.921000", "143144.921000", "143146.921000", "143148.921000", "143150.921000", "143152.921000", "143154.921000", "143156.921000", "143158.921000", "143200.921000", "143202.921000", "143204.921000", "143207.421000", "143208.921000", "143210.921000", "143212.921000", "143214.921000", "143216.921000", "143218.921000", "143220.921000", "143222.921000", "143224.921000", "143226.921000", "143228.921000", "143230.921000", "143232.921000", "143234.921000", "143236.921000", "143238.921000", "143240.921000", "143242.921000", "143244.921000", "143246.921000", "143248.921000", "143250.921000", "143252.921000", "143254.921000", "143256.921000", "143258.921000", "143300.921000", "143302.921000", "143304.921000", "143306.921000", "143308.921000", "143310.921000", "143312.921000", "143314.921000", "143316.921000", "143318.921000", "143320.921000", "143322.921000", "143324.921000", "143326.921000", "143328.921000", "143330.921000", "143332.921000", "143334.921000", "143336.921000", "143338.921000", "143340.921000", "143342.828000"],
      "InstanceNumber": [1, 2, 3, 4, 5, 6, 7, 8, 9, 10, 11, 12, 13, 14, 15, 16, 17, 18, 19, 20, 21, 22, 23, 24, 25, 26, 27, 28, 29, 30, 31, 32, 33, 34, 35, 36, 37, 38, 39, 40, 41, 42, 43, 44, 45, 46, 47, 48, 49, 50, 51, 52, 53, 54, 55, 56, 57, 58, 59, 60, 61, 62, 63, 64, 65, 66, 67, 68, 69, 70, 71, 72, 73, 74, 75, 76, 77, 78, 79, 80, 81, 82, 83, 84, 85, 86, 87, 88, 89, 90, 91, 92, 93, 94, 95, 96, 97, 98, 99, 100, 101, 102, 103, 104, 105, 106, 107, 108, 109, 110, 111, 112, 113, 114, 115, 116, 117, 118, 119, 120, 121, 122, 123, 124, 125, 126, 127, 128, 129, 130, 131, 132, 133, 134, 135, 136, 137, 138, 139, 140, 141, 142, 143, 144, 145, 146, 147, 148, 149, 150, 151, 152, 153, 154, 155, 156, 157, 158, 159, 160, 161, 162, 163, 164, 165, 166, 167, 168, 169, 170, 171, 172, 173, 174, 175, 176, 177, 178, 179, 180, 181, 182, 183, 184, 185, 186, 187, 188, 189, 190, 191, 192, 193, 194, 195, 196, 197, 198, 199, 200, 201, 202, 203, 204, 205, 206, 207, 208, 209, 210],
      "LargestImagePixelValue": [1849, 1773, 1761, 1757, 1734, 1714, 1739, 1741, 1744, 1734, 1767, 1741, 1772, 1760, 1751, 1752, 1754, 1751, 1757, 1742, 1766, 1761, 1742, 1750, 1747, 1732, 1741, 1747, 1768, 1764, 1752, 1747, 1759, 1763, 1761, 1766, 1734, 1743, 1748, 1756, 1755, 1773, 1758, 1760, 1759, 1752, 1733, 1744, 1735, 1740, 1730, 1741, 1721, 1741, 1737, 1743, 1727, 1755, 1739, 1757, 1753, 1750, 1741, 1758, 1736, 1729, 1741, 1743, 1732, 1726, 1740, 1723, 1734, 1733, 1721, 1734, 1756, 1752, 1755, 1745, 1750, 1750, 1744, 1737, 1747, 1736, 1738, 1745, 1748, 1730, 1742, 1725, 1735, 1742, 1738, 1720, 1736, 1741, 1730, 1729, 1758, 1743, 1751, 1758, 1742, 1723, 1748, 1739, 1740, 1736, 1740, 1758, 1752, 1743, 1750, 1729, 1736, 1726, 1729, 1736, 1755, 1748, 1932, 1755, 1748, 1755, 1753, 1844, 1730, 1733, 1744, 1746, 1758, 1759, 1754, 1746, 1757, 1748, 1771, 1750, 1739, 1744, 1750, 1740, 1751, 1754, 1765, 1736, 1748, 1746, 1762, 1754, 1770, 1759, 1768, 1754, 1758, 1744, 1750, 1748, 1741, 1754, 1765, 1765, 1756, 1767, 1755, 1760, 1765, 1759, 1754, 1739, 1733, 1764, 1753, 1740, 1748, 1764, 1743, 1747, 1744, 1756, 1745, 1748, 1750, 1746, 1750, 1744, 1739, 1741, 1751, 1756, 1743, 1758, 1741, 1753, 1739, 1754, 1747, 1750, 1745, 1770, 1732, 1744, 1747, 1736, 1751, 1744, 1751, 1739],
      "WindowCenter": [747.0, 744.0, 742.0, 741.0, 739.0, 738.0, 738.0, 738.0, 739.0, 740.0, 740.0, 740.0, 742.0, 741.0, 741.0, 741.0, 741.0, 742.0, 743.0, 742.0, 740.0, 741.0, 742.0, 744.0, 743.0, 742.0, 739.0, 740.0, 740.0, 741.0, 742.0, 742.0, 741.0, 741.0, 741.0, 741.0, 741.0, 740.0, 740.0, 741.0, 742.0, 742.0, 741.0, 741.0, 741.0, 741.0, 741.0, 741.0, 741.0, 741.0, 741.0, 741.0, 741.0, 742.0, 741.0, 741.0, 740.0, 741.0, 740.0, 741.0, 740.0, 741.0, 740.0, 741.0, 741.0, 741.0, 740.0, 740.0, 740.0, 740.0, 742.0, 742.0, 741.0, 739.0, 738.0, 740.0, 740.0, 740.0, 740.0, 740.0, 740.0, 740.0, 741.0, 742.0, 742.0, 742.0, 742.0, 741.0, 741.0, 741.0, 741.0, 740.0, 741.0, 741.0, 741.0, 742.0, 744.0, 743.0, 742.0, 740.0, 740.0, 740.0, 740.0, 741.0, 740.0, 741.0, 741.0, 741.0, 742.0, 742.0, 742.0, 742.0, 743.0, 741.0, 741.0, 739.0, 739.0, 741.0, 743.0, 742.0, 741.0, 741.0, 746.0, 742.0, 742.0, 743.0, 741.0, 739.0, 738.0, 738.0, 740.0, 741.0, 741.0, 741.0, 741.0, 741.0, 741.0, 741.0, 742.0, 742.0, 741.0, 741.0, 741.0, 740.0, 740.0, 741.0, 740.0, 741.0, 740.0, 741.0, 741.0, 741.0, 742.0, 742.0, 742.0, 742.0, 741.0, 741.0, 741.0, 742.0, 742.0, 743.0, 742.0, 743.0, 743.0, 742.0, 741.0, 740.0, 741.0, 742.0, 743.0, 742.0, 742.0, 742.0, 742.0, 742.0, 742.0, 741.0, 740.0, 742.0, 744.0, 743.0, 742.0, 740.0, 740.0, 740.0, 740.0, 739.0, 740.0, 740.0, 741.0, 742.0, 741.0, 741.0, 740.0, 741.0, 741.0, 742.0, 742.0, 743.0, 742.0, 741.0, 740.0, 740.0, 742.0, 741.0, 741.0, 741.0, 741.0, 743.0],
      "WindowWidth": [1570.0, 1563.0, 1558.0, 1554.0, 1549.0, 1548.0, 1548.0, 1549.0, 1551.0, 1552.0, 1554.0, 1554.0, 1557.0, 1555.0, 1556.0, 1556.0, 1556.0, 1559.0, 1560.0, 1556.0, 1553.0, 1554.0, 1558.0, 1561.0, 1559.0, 1557.0, 1551.0, 1552.0, 1552.0, 1555.0, 1557.0, 1557.0, 1556.0, 1555.0, 1555.0, 1555.0, 1556.0, 1554.0, 1554.0, 1556.0, 1557.0, 1558.0, 1556.0, 1555.0, 1555.0, 1555.0, 1554.0, 1554.0, 1554.0, 1556.0, 1554.0, 1555.0, 1556.0, 1557.0, 1556.0, 1556.0, 1553.0, 1554.0, 1553.0, 1555.0, 1554.0, 1555.0, 1553.0, 1556.0, 1555.0, 1554.0, 1553.0, 1553.0, 1553.0, 1554.0, 1558.0, 1556.0, 1554.0, 1551.0, 1549.0, 1552.0, 1554.0, 1554.0, 1554.0, 1552.0, 1554.0, 1553.0, 1556.0, 1558.0, 1558.0, 1558.0, 1558.0, 1556.0, 1555.0, 1554.0, 1555.0, 1554.0, 1555.0, 1554.0, 1555.0, 1557.0, 1562.0, 1560.0, 1556.0, 1553.0, 1553.0, 1553.0, 1554.0, 1555.0, 1552.0, 1555.0, 1556.0, 1555.0, 1557.0, 1558.0, 1557.0, 1557.0, 1559.0, 1555.0, 1554.0, 1550.0, 1550.0, 1556.0, 1559.0, 1558.0, 1556.0, 1556.0, 1569.0, 1557.0, 1557.0, 1558.0, 1555.0, 1550.0, 1548.0, 1548.0, 1553.0, 1554.0, 1555.0, 1555.0, 1555.0, 1555.0, 1556.0, 1554.0, 1558.0, 1558.0, 1556.0, 1555.0, 1554.0, 1552.0, 1553.0, 1555.0, 1553.0, 1554.0, 1554.0, 1556.0, 1556.0, 1556.0, 1556.0, 1558.0, 1556.0, 1557.0, 1555.0, 1555.0, 1554.0, 1558.0, 1558.0, 1559.0, 1557.0, 1559.0, 1560.0, 1557.0, 1556.0, 1553.0, 1555.0, 1558.0, 1559.0, 1557.0, 1556.0, 1556.0, 1556.0, 1558.0, 1556.0, 1555.0, 1552.0, 1556.0, 1561.0, 1559.0, 1557.0, 1553.0, 1553.0, 1552.0, 1553.0, 1550.0, 1551.0, 1552.0, 1556.0, 1558.0, 1555.0, 1554.0, 1553.0, 1556.0, 1556.0, 1556.0, 1557.0, 1559.0, 1556.0, 1554.0, 1552.0, 1553.0, 1557.0, 1555.0, 1555.0, 1554.0, 1555.0, 1559.0]
    },
    "slices": {}
  }
}