{
  "AcquisitionMatrixPE": 64,
  "AcquisitionNumber": 1,
  "AcquisitionTime": "17:23:3.120000",
  "BandwidthPerPixelPhaseEncode": 30.637,
  "BaseResolution": 64,
  "BidsGuess": [
    "func",
    "_acq-epfid2_dir-AP_run-7_bold"
],
  "CoilCombinationMethod": "Sum of Squares",
  "CoilString": "C:HEA;HEP",
  "ConversionSoftware": "dcm2niix",
  "ConversionSoftwareVersion": "v1.0.20240202",
  "DerivedVendorReportedEchoSpacing": 0.000510004,
  "DeviceSerialNumber": "35119",
  "DwellTime": 3.5e-06,
  "EchoTime": 0.03,
  "EffectiveEchoSpacing": 0.000510004,
  "FlipAngle": 78,
  "HeudiconvVersion": "1.1.6",
  "ImageComments": "V",
  "ImageOrientationPatientDICOM": [1, 0, 0, 0, 0.930418, -0.366501],
  "ImageOrientationText": "Tra>Cor(-21.5)",
  "ImageType": [
    "ORIGINAL",
    "PRIMARY",
    "M",
    "ND",
    "MOSAIC"
],
  "ImagingFrequency": 123.251851,
  "InPlanePhaseEncodingDirectionDICOM": "COL",
  "InstitutionAddress": "Chaucer Road  15,Cambridge,UK,GB,CB2 2EF",
  "InstitutionName": "MRC-CBU",
  "MRAcquisitionType": "2D",
  "MagneticFieldStrength": 3,
  "Manufacturer": "Siemens",
  "ManufacturersModelName": "TrioTim",
  "MatrixCoilMode": "SENSE",
  "Modality": "MR",
  "NonlinearGradientCorrection": false,
  "PartialFourier": 1,
  "PatientPosition": "HFS",
  "PercentPhaseFOV": 100,
  "PercentSampling": 100,
  "PhaseEncodingDirection": "j-",
  "PhaseEncodingSteps": 64,
  "PhaseResolution": 1,
  "PixelBandwidth": 2230,
  "ProcedureStepDescription": "CBU^Neuroimaging",
  "ProtocolName": "CBU_DWEPI_BOLD210",
  "PulseSequenceDetails": "%SiemensSeq%\\ep2d_bold",
  "ReceiveCoilName": "HeadMatrix",
  "ReconMatrixPE": 64,
  "RepetitionTime": 2,
  "SAR": 0.139265,
  "ScanOptions": "FS",
  "ScanningSequence": "EP",
  "SequenceName": "*epfid2d1_64",
  "SequenceVariant": "SK",
  "SeriesDescription": "CBU_DWEPI_BOLD210",
  "SeriesNumber": 7,
  "ShimSetting": [-7830, -8787, -2019, 718, 120, -76, -200, 113],
  "SliceThickness": 3,
  "SliceTiming": [0, 1.035, 0.0625, 1.095, 0.1225, 1.1575, 0.1825, 1.2175, 0.245, 1.2775, 0.305, 1.34, 0.365, 1.4, 0.4275, 1.46, 0.4875, 1.5225, 0.5475, 1.5825, 0.61, 1.6425, 0.67, 1.705, 0.73, 1.765, 0.7925, 1.825, 0.8525, 1.8875, 0.9125, 1.9475, 0.975],
  "SoftwareVersions": "syngo MR B15",
  "SpacingBetweenSlices": 4.05,
  "StationName": "MRC35119",
  "TaskName": "faceprocessing",
  "TotalReadoutTime": 0.0321303,
  "TxRefAmp": 337.525,
  "dcmmeta_affine": [
    [-3.0, 0.0, 0.0, 100.06779479980469],
    [0.0, 2.7912540435791016, -1.484329104423523, -50.150306701660156],
    [0.0, 1.0995030403137207, 3.768193006515503, -71.61522674560547],
    [0.0, 0.0, 0.0, 1.0]
],
  "dcmmeta_reorient_transform": [
    [0.0, -1.0, 0.0, 63.0],
    [1.0, 0.0, 0.0, 0.0],
    [0.0, 0.0, 1.0, 0.0],
    [0.0, 0.0, 0.0, 1.0]
],
  "dcmmeta_shape": [64, 64, 33, 210],
  "dcmmeta_slice_dim": 2,
  "dcmmeta_version": 0.6,
  "global": {
    "const": {
      "AcquisitionMatrix": [64, 0, 0, 64],
      "AngioFlag": "N",
      "BitsAllocated": 16,
      "BitsStored": 12,
      "Columns": 384,
      "EchoNumbers": 1,
      "EchoTime": 30.0,
      "EchoTrainLength": 1,
      "FlipAngle": 78.0,
      "HighBit": 11,
      "ImageOrientationPatient": [1.0, 0.0, 0.0, 0.0, 0.930418, -0.366501],
      "ImagePositionPatient": [-580.067797, -572.299334, 173.573946],
      "ImageType": [
        "ORIGINAL",
        "PRIMARY",
        "M",
        "ND",
        "MOSAIC"
],
      "ImagedNucleus": "1H",
      "ImagingFrequency": 123.251851,
      "InPlanePhaseEncodingDirection": "COL",
      "MRAcquisitionType": "2D",
      "MagneticFieldStrength": 3.0,
      "Manufacturer": "SIEMENS",
      "ManufacturerModelName": "TrioTim",
      "Modality": "MR",
      "NumberOfAverages": 1.0,
      "NumberOfPhaseEncodingSteps": 64,
      "PercentPhaseFieldOfView": 100.0,
      "PercentSampling": 100.0,
      "PerformedProcedureStepStartTime": "164313.515000",
      "PhotometricInterpretation": "MONOCHROME2",
      "PixelAspectRatio": [1, 1],
      "PixelBandwidth": 2230.0,
      "PixelRepresentation": 0,
      "PixelSpacing": [3.0, 3.0],
      "ProtocolName": "CBU_DWEPI_BOLD210",
      "RepetitionTime": 2000.0,
      "Rows": 384,
      "SAR": 0.139265,
      "SamplesPerPixel": 1,
      "ScanOptions": "FS",
      "ScanningSequence": "EP",
      "SequenceName": "*epfid2d1_64",
      "SequenceVariant": "SK",
      "SeriesDescription": "CBU_DWEPI_BOLD210",
      "SeriesNumber": 7,
      "SeriesTime": "172306.250000",
      "SliceLocation": -48.252169,
      "SliceThickness": 3.0,
      "SmallestImagePixelValue": 0,
      "SoftwareVersions": "syngo MR B15",
      "SpacingBetweenSlices": 4.05,
      "SpecificCharacterSet": "ISO_IR 100",
      "StudyID": "1",
      "StudyTime": "164313.453000",
      "TransmitCoilName": "Body",
      "VariableFlipAngleFlag": "N",
      "WindowCenterWidthExplanation": "Algo1",
      "dBdt": 0.0},
    "slices": {}
  },
  "time": {
    "samples": {
      "AcquisitionNumber": [1, 2, 3, 4, 5, 6, 7, 8, 9, 10, 11, 12, 13, 14, 15, 16, 17, 18, 19, 20, 21, 22, 23, 24, 25, 26, 27, 28, 29, 30, 31, 32, 33, 34, 35, 36, 37, 38, 39, 40, 41, 42, 43, 44, 45, 46, 47, 48, 49, 50, 51, 52, 53, 54, 55, 56, 57, 58, 59, 60, 61, 62, 63, 64, 65, 66, 67, 68, 69, 70, 71, 72, 73, 74, 75, 76, 77, 78, 79, 80, 81, 82, 83, 84, 85, 86, 87, 88, 89, 90, 91, 92, 93, 94, 95, 96, 97, 98, 99, 100, 101, 102, 103, 104, 105, 106, 107, 108, 109, 110, 111, 112, 113, 114, 115, 116, 117, 118, 119, 120, 121, 122, 123, 124, 125, 126, 127, 128, 129, 130, 131, 132, 133, 134, 135, 136, 137, 138, 139, 140, 141, 142, 143, 144, 145, 146, 147, 148, 149, 150, 151, 152, 153, 154, 155, 156, 157, 158, 159, 160, 161, 162, 163, 164, 165, 166, 167, 168, 169, 170, 171, 172, 173, 174, 175, 176, 177, 178, 179, 180, 181, 182, 183, 184, 185, 186, 187, 188, 189, 190, 191, 192, 193, 194, 195, 196, 197, 198, 199, 200, 201, 202, 203, 204, 205, 206, 207, 208, 209, 210],
      "AcquisitionTime": ["172303.120000", "172305.130000", "172307.137500", "172309.145000", "172311.152500", "172313.162500", "172315.170000", "172317.177500", "172319.185000", "172321.192500", "172323.202500", "172325.210000", "172327.217500", "172329.225000", "172331.232500", "172333.242500", "172335.250000", "172337.257500", "172339.265000", "172341.275000", "172343.282500", "172345.290000", "172347.297500", "172349.305000", "172351.315000", "172353.322500", "172355.330000", "172357.337500", "172359.345000", "172401.355000", "172403.362500", "172405.370000", "172407.377500", "172409.385000", "172411.395000", "172413.402500", "172415.410000", "172417.417500", "172419.427500", "172421.435000", "172423.442500", "172425.450000", "172427.457500", "172429.467500", "172431.475000", "172433.482500", "172435.490000", "172437.497500", "172439.507500", "172441.515000", "172443.522500", "172445.530000", "172447.540000", "172449.547500", "172451.555000", "172453.562500", "172455.570000", "172457.580000", "172459.587500", "172501.595000", "172503.602500", "172505.610000", "172507.620000", "172509.627500", "172511.635000", "172513.642500", "172515.652500", "172517.660000", "172519.667500", "172521.675000", "172523.682500", "172525.692500", "172527.700000", "172529.707500", "172531.715000", "172533.722500", "172535.732500", "172537.740000", "172539.747500", "172541.755000", "172543.762500", "172545.772500", "172547.780000", "172549.787500", "172551.795000", "172553.805000", "172555.812500", "172557.820000", "172559.827500", "172601.835000", "172603.845000", "172605.852500", "172607.860000", "172609.867500", "172611.875000", "172613.885000", "172615.892500", "172617.900000", "172619.907500", "172621.917500", "172623.925000", "172625.932500", "172627.940000", "172629.947500", "172631.957500", "172633.965000", "172635.972500", "172637.980000", "172639.987500", "172641.997500", "172644.005000", "172646.012500", "172648.020000", "172650.030000", "172652.037500", "172654.045000", "172656.052500", "172658.060000", "172700.070000", "172702.077500", "172704.085000", "172706.092500", "172708.100000", "172710.110000", "172712.117500", "172714.125000", "172716.132500", "172718.140000", "172720.150000", "172722.157500", "172724.165000", "172726.172500", "172728.182500", "172730.190000", "172732.197500", "172734.205000", "172736.212500", "172738.222500", "172740.230000", "172742.237500", "172744.245000", "172746.252500", "172748.262500", "172750.270000", "172752.277500", "172754.285000", "172756.295000", "172758.302500", "172800.310000", "172802.317500", "172804.325000", "172806.335000", "172808.342500", "172810.350000", "172812.357500", "172814.365000", "172816.375000", "172818.382500", "172820.390000", "172822.397500", "172824.407500", "172826.415000", "172828.422500", "172830.430000", "172832.437500", "172834.447500", "172836.455000", "172838.462500", "172840.470000", "172842.477500", "172844.487500", "172846.495000", "172848.502500", "172850.510000", "172852.517500", "172854.527500", "172856.535000", "172858.542500", "172900.550000", "172902.560000", "172904.567500", "172906.575000", "172908.582500", "172910.590000", "172912.600000", "172914.607500", "172916.615000", "172918.622500", "172920.630000", "172922.640000", "172924.647500", "172926.655000", "172928.662500", "172930.672500", "172932.680000", "172934.687500", "172936.695000", "172938.702500", "172940.712500", "172942.720000", "172944.727500", "172946.735000", "172948.742500", "172950.752500", "172952.760000", "172954.767500", "172956.775000", "172958.785000", "173000.792500", "173002.800000"],
      "ContentTime": ["172306.250000", "172308.250000", "172310.250000", "172312.250000", "172314.250000", "172316.250000", "172318.250000", "172320.250000", "172322.250000", "172324.250000", "172326.250000", "172328.250000", "172330.250000", "172332.250000", "172334.250000", "172336.250000", "172338.250000", "172340.250000", "172342.250000", "172344.250000", "172346.250000", "172348.250000", "172350.250000", "172352.250000", "172354.250000", "172356.250000", "172358.250000", "172400.250000", "172402.250000", "172404.250000", "172406.250000", "172408.250000", "172410.250000", "172412.250000", "172414.250000", "172416.250000", "172418.250000", "172420.250000", "172422.250000", "172424.250000", "172426.250000", "172428.250000", "172430.250000", "172432.250000", "172434.250000", "172436.250000", "172438.250000", "172440.250000", "172442.250000", "172444.250000", "172446.250000", "172448.250000", "172450.250000", "172452.250000", "172454.250000", "172456.250000", "172458.250000", "172500.250000", "172502.250000", "172504.250000", "172506.250000", "172508.250000", "172510.250000", "172512.250000", "172514.250000", "172516.250000", "172518.250000", "172520.250000", "172522.250000", "172524.250000", "172526.250000", "172528.250000", "172530.250000", "172532.250000", "172534.250000", "172536.250000", "172538.250000", "172540.250000", "172542.250000", "172544.250000", "172546.250000", "172548.250000", "172550.250000", "172552.250000", "172554.250000", "172556.250000", "172558.250000", "172600.250000", "172602.250000", "172604.250000", "172606.250000", "172608.250000", "172610.250000", "172612.250000", "172614.250000", "172616.250000", "172618.250000", "172620.265000", "172622.250000", "172624.250000", "172626.250000", "172628.250000", "172630.250000", "172632.250000", "172634.250000", "172636.250000", "172638.250000", "172640.250000", "172642.250000", "172644.250000", "172646.250000", "172648.250000", "172650.250000", "172652.250000", "172654.250000", "172656.250000", "172658.250000", "172700.250000", "172702.250000", "172704.250000", "172706.250000", "172708.250000", "172710.250000", "172712.250000", "172714.250000", "172716.250000", "172718.250000", "172720.250000", "172722.250000", "172724.250000", "172726.250000", "172728.250000", "172730.250000", "172732.250000", "172734.250000", "172736.250000", "172738.250000", "172740.250000", "172742.250000", "172744.250000", "172746.250000", "172748.250000", "172750.250000", "172752.250000", "172754.250000", "172756.250000", "172758.250000", "172800.250000", "172802.250000", "172804.250000", "172806.250000", "172808.250000", "172810.250000", "172812.250000", "172814.250000", "172816.250000", "172818.250000", "172820.250000", "172822.250000", "172824.250000", "172826.250000", "172828.250000", "172830.250000", "172832.250000", "172834.250000", "172836.250000", "172838.250000", "172840.250000", "172842.250000", "172844.250000", "172846.250000", "172848.250000", "172850.250000", "172852.250000", "172854.250000", "172856.250000", "172858.250000", "172900.250000", "172902.250000", "172904.250000", "172906.250000", "172908.250000", "172910.250000", "172912.250000", "172914.250000", "172916.250000", "172918.250000", "172920.250000", "172922.250000", "172924.250000", "172926.250000", "172928.250000", "172930.250000", "172932.250000", "172934.250000", "172936.250000", "172938.250000", "172940.250000", "172942.250000", "172944.250000", "172946.250000", "172948.250000", "172950.250000", "172952.250000", "172954.250000", "172956.250000", "172958.250000", "173000.250000", "173002.250000", "173003.968000"],
      "InstanceCreationTime": ["172306.250000", "172308.250000", "172310.250000", "172312.250000", "172314.250000", "172316.250000", "172318.250000", "172320.250000", "172322.250000", "172324.250000", "172326.250000", "172328.250000", "172330.250000", "172332.250000", "172334.250000", "172336.250000", "172338.250000", "172340.250000", "172342.250000", "172344.250000", "172346.250000", "172348.250000", "172350.250000", "172352.250000", "172354.250000", "172356.250000", "172358.250000", "172400.250000", "172402.250000", "172404.250000", "172406.250000", "172408.250000", "172410.250000", "172412.250000", "172414.250000", "172416.250000", "172418.250000", "172420.250000", "172422.250000", "172424.250000", "172426.250000", "172428.250000", "172430.250000", "172432.250000", "172434.250000", "172436.250000", "172438.250000", "172440.250000", "172442.250000", "172444.250000", "172446.250000", "172448.250000", "172450.250000", "172452.250000", "172454.250000", "172456.250000", "172458.250000", "172500.250000", "172502.250000", "172504.250000", "172506.250000", "172508.250000", "172510.250000", "172512.250000", "172514.250000", "172516.250000", "172518.250000", "172520.250000", "172522.250000", "172524.250000", "172526.250000", "172528.250000", "172530.250000", "172532.250000", "172534.250000", "172536.250000", "172538.250000", "172540.250000", "172542.250000", "172544.250000", "172546.250000", "172548.250000", "172550.250000", "172552.250000", "172554.250000", "172556.250000", "172558.250000", "172600.250000", "172602.250000", "172604.250000", "172606.250000", "172608.250000", "172610.250000", "172612.250000", "172614.250000", "172616.250000", "172618.250000", "172620.265000", "172622.250000", "172624.250000", "172626.250000", "172628.250000", "172630.250000", "172632.250000", "172634.250000", "172636.250000", "172638.250000", "172640.250000", "172642.250000", "172644.250000", "172646.250000", "172648.250000", "172650.250000", "172652.250000", "172654.250000", "172656.250000", "172658.250000", "172700.250000", "172702.250000", "172704.250000", "172706.250000", "172708.250000", "172710.250000", "172712.250000", "172714.250000", "172716.250000", "172718.250000", "172720.250000", "172722.250000", "172724.250000", "172726.250000", "172728.250000", "172730.250000", "172732.250000", "172734.250000", "172736.250000", "172738.250000", "172740.250000", "172742.250000", "172744.250000", "172746.250000", "172748.250000", "172750.250000", "172752.250000", "172754.250000", "172756.250000", "172758.250000", "172800.250000", "172802.250000", "172804.250000", "172806.250000", "172808.250000", "172810.250000", "172812.250000", "172814.250000", "172816.250000", "172818.250000", "172820.250000", "172822.250000", "172824.250000", "172826.250000", "172828.250000", "172830.250000", "172832.250000", "172834.250000", "172836.250000", "172838.250000", "172840.250000", "172842.250000", "172844.250000", "172846.250000", "172848.250000", "172850.250000", "172852.250000", "172854.250000", "172856.250000", "172858.250000", "172900.250000", "172902.250000", "172904.250000", "172906.250000", "172908.250000", "172910.250000", "172912.250000", "172914.250000", "172916.250000", "172918.250000", "172920.250000", "172922.250000", "172924.250000", "172926.250000", "172928.250000", "172930.250000", "172932.250000", "172934.250000", "172936.250000", "172938.250000", "172940.250000", "172942.250000", "172944.250000", "172946.250000", "172948.250000", "172950.250000", "172952.250000", "172954.250000", "172956.250000", "172958.250000", "173000.250000", "173002.250000", "173003.968000"],
      "InstanceNumber": [1, 2, 3, 4, 5, 6, 7, 8, 9, 10, 11, 12, 13, 14, 15, 16, 17, 18, 19, 20, 21, 22, 23, 24, 25, 26, 27, 28, 29, 30, 31, 32, 33, 34, 35, 36, 37, 38, 39, 40, 41, 42, 43, 44, 45, 46, 47, 48, 49, 50, 51, 52, 53, 54, 55, 56, 57, 58, 59, 60, 61, 62, 63, 64, 65, 66, 67, 68, 69, 70, 71, 72, 73, 74, 75, 76, 77, 78, 79, 80, 81, 82, 83, 84, 85, 86, 87, 88, 89, 90, 91, 92, 93, 94, 95, 96, 97, 98, 99, 100, 101, 102, 103, 104, 105, 106, 107, 108, 109, 110, 111, 112, 113, 114, 115, 116, 117, 118, 119, 120, 121, 122, 123, 124, 125, 126, 127, 128, 129, 130, 131, 132, 133, 134, 135, 136, 137, 138, 139, 140, 141, 142, 143, 144, 145, 146, 147, 148, 149, 150, 151, 152, 153, 154, 155, 156, 157, 158, 159, 160, 161, 162, 163, 164, 165, 166, 167, 168, 169, 170, 171, 172, 173, 174, 175, 176, 177, 178, 179, 180, 181, 182, 183, 184, 185, 186, 187, 188, 189, 190, 191, 192, 193, 194, 195, 196, 197, 198, 199, 200, 201, 202, 203, 204, 205, 206, 207, 208, 209, 210],
      "LargestImagePixelValue": [2239, 2056, 2046, 2008, 1973, 2029, 1988, 1971, 1984, 1982, 1977, 1966, 1984, 1984, 1981, 2004, 1978, 1991, 1979, 1977, 1972, 1988, 1992, 1993, 1980, 1975, 1984, 1965, 1973, 1977, 2026, 1997, 1987, 1983, 1976, 1973, 1982, 1995, 2015, 1958, 1994, 1973, 1987, 2009, 1967, 1993, 1980, 2000, 1961, 1992, 1978, 1989, 1996, 1981, 2023, 2000, 2001, 1989, 1972, 2009, 1984, 1999, 1986, 1991, 2004, 1986, 2001, 2014, 1993, 1969, 2012, 2002, 1992, 1997, 2014, 2032, 2011, 1990, 1985, 1983, 2004, 1989, 1977, 1959, 1989, 1982, 2001, 1994, 2030, 1999, 1975, 2012, 1984, 1977, 1996, 1983, 1976, 1997, 1993, 1972, 1966, 1970, 1969, 1990, 1987, 1980, 1978, 1992, 1966, 1988, 1999, 1984, 1974, 1986, 1989, 1957, 1981, 1987, 1995, 1971, 1971, 1986, 1993, 1985, 1981, 1978, 1982, 1968, 1980, 1977, 1979, 1999, 1991, 1982, 1953, 1966, 1975, 1979, 1944, 1966, 1976, 1949, 1962, 1954, 1963, 1944, 1938, 1936, 1962, 1956, 1967, 1934, 1951, 1927, 1942, 1929, 1944, 1941, 1950, 1963, 1960, 1930, 1930, 1972, 1983, 1958, 1985, 1969, 1955, 2005, 2000, 1979, 1967, 1948, 1990, 1969, 1962, 1963, 1959, 1972, 1975, 1956, 1980, 1963, 1944, 1973, 1948, 1985, 2010, 1945, 1968, 1974, 1981, 2002, 2003, 1987, 1992, 1997, 1995, 1970, 1985, 1983, 1968, 1957, 1952, 1950, 1944, 1950, 1970, 1973],
      "WindowCenter": [764.0, 760.0, 760.0, 760.0, 761.0, 761.0, 761.0, 761.0, 761.0, 761.0, 761.0, 761.0, 762.0, 762.0, 762.0, 763.0, 763.0, 762.0, 761.0, 761.0, 761.0, 761.0, 762.0, 761.0, 762.0, 764.0, 765.0, 764.0, 762.0, 760.0, 760.0, 761.0, 761.0, 761.0, 761.0, 761.0, 761.0, 763.0, 762.0, 761.0, 761.0, 760.0, 761.0, 763.0, 762.0, 761.0, 762.0, 762.0, 761.0, 761.0, 760.0, 760.0, 760.0, 760.0, 760.0, 760.0, 760.0, 761.0, 762.0, 762.0, 760.0, 760.0, 762.0, 762.0, 762.0, 761.0, 761.0, 761.0, 761.0, 760.0, 760.0, 760.0, 760.0, 760.0, 761.0, 761.0, 761.0, 760.0, 761.0, 761.0, 761.0, 760.0, 760.0, 760.0, 761.0, 761.0, 761.0, 760.0, 761.0, 761.0, 761.0, 761.0, 761.0, 761.0, 763.0, 762.0, 761.0, 761.0, 761.0, 762.0, 762.0, 762.0, 761.0, 761.0, 761.0, 762.0, 761.0, 761.0, 760.0, 761.0, 761.0, 761.0, 761.0, 761.0, 761.0, 760.0, 761.0, 761.0, 761.0, 761.0, 762.0, 762.0, 762.0, 762.0, 762.0, 761.0, 762.0, 762.0, 762.0, 763.0, 763.0, 762.0, 761.0, 761.0, 761.0, 762.0, 762.0, 763.0, 763.0, 762.0, 761.0, 760.0, 761.0, 762.0, 762.0, 762.0, 761.0, 761.0, 762.0, 762.0, 762.0, 762.0, 762.0, 763.0, 765.0, 763.0, 762.0, 761.0, 762.0, 763.0, 765.0, 764.0, 762.0, 761.0, 760.0, 760.0, 760.0, 761.0, 760.0, 760.0, 760.0, 761.0, 761.0, 761.0, 761.0, 761.0, 762.0, 763.0, 763.0, 763.0, 763.0, 763.0, 763.0, 764.0, 764.0, 766.0, 764.0, 762.0, 763.0, 763.0, 765.0, 766.0, 764.0, 763.0, 761.0, 761.0, 760.0, 760.0, 761.0, 761.0, 761.0, 761.0, 761.0, 761.0, 762.0, 764.0, 763.0, 764.0, 765.0, 765.0],
      "WindowWidth": [1611.0, 1601.0, 1601.0, 1601.0, 1602.0, 1604.0, 1603.0, 1602.0, 1602.0, 1604.0, 1604.0, 1604.0, 1605.0, 1605.0, 1606.0, 1608.0, 1607.0, 1607.0, 1604.0, 1602.0, 1603.0, 1604.0, 1605.0, 1604.0, 1607.0, 1611.0, 1613.0, 1611.0, 1605.0, 1602.0, 1601.0, 1602.0, 1603.0, 1604.0, 1604.0, 1604.0, 1603.0, 1607.0, 1607.0, 1604.0, 1603.0, 1602.0, 1604.0, 1607.0, 1605.0, 1605.0, 1606.0, 1606.0, 1604.0, 1603.0, 1601.0, 1600.0, 1601.0, 1602.0, 1602.0, 1601.0, 1601.0, 1603.0, 1605.0, 1605.0, 1602.0, 1602.0, 1605.0, 1606.0, 1605.0, 1603.0, 1603.0, 1603.0, 1603.0, 1602.0, 1601.0, 1600.0, 1601.0, 1602.0, 1603.0, 1603.0, 1603.0, 1602.0, 1603.0, 1603.0, 1603.0, 1601.0, 1601.0, 1602.0, 1603.0, 1603.0, 1602.0, 1601.0, 1603.0, 1603.0, 1603.0, 1604.0, 1604.0, 1605.0, 1608.0, 1607.0, 1604.0, 1603.0, 1604.0, 1606.0, 1607.0, 1605.0, 1602.0, 1603.0, 1604.0, 1605.0, 1603.0, 1604.0, 1602.0, 1603.0, 1605.0, 1604.0, 1604.0, 1603.0, 1603.0, 1602.0, 1603.0, 1604.0, 1603.0, 1604.0, 1606.0, 1607.0, 1605.0, 1606.0, 1605.0, 1605.0, 1605.0, 1606.0, 1606.0, 1608.0, 1607.0, 1606.0, 1604.0, 1604.0, 1605.0, 1607.0, 1607.0, 1609.0, 1608.0, 1605.0, 1602.0, 1603.0, 1603.0, 1607.0, 1607.0, 1606.0, 1604.0, 1604.0, 1606.0, 1607.0, 1607.0, 1606.0, 1606.0, 1610.0, 1612.0, 1608.0, 1605.0, 1604.0, 1606.0, 1609.0, 1613.0, 1609.0, 1605.0, 1603.0, 1601.0, 1601.0, 1602.0, 1603.0, 1602.0, 1601.0, 1602.0, 1603.0, 1604.0, 1604.0, 1604.0, 1604.0, 1607.0, 1609.0, 1609.0, 1608.0, 1608.0, 1608.0, 1608.0, 1611.0, 1612.0, 1615.0, 1611.0, 1607.0, 1607.0, 1609.0, 1613.0, 1615.0, 1610.0, 1607.0, 1604.0, 1603.0, 1602.0, 1601.0, 1603.0, 1603.0, 1602.0, 1603.0, 1603.0, 1603.0, 1607.0, 1610.0, 1607.0, 1610.0, 1613.0, 1612.0]
    },
    "slices": {}
  }
}