{
  "AcquisitionMatrixPE": 64,
  "AcquisitionNumber": 1,
  "AcquisitionTime": "16:52:59.682500",
  "BandwidthPerPixelPhaseEncode": 30.637,
  "BaseResolution": 64,
  "BidsGuess": [
    "func",
    "_acq-epfid2_dir-AP_run-3_bold"
],
  "CoilCombinationMethod": "Sum of Squares",
  "CoilString": "C:HEA;HEP",
  "ConversionSoftware": "dcm2niix",
  "ConversionSoftwareVersion": "v1.0.20240202",
  "DerivedVendorReportedEchoSpacing": 0.000510004,
  "DeviceSerialNumber": "35119",
  "DwellTime": 3.5e-06,
  "EchoTime": 0.03,
  "EffectiveEchoSpacing": 0.000510004,
  "FlipAngle": 78,
  "HeudiconvVersion": "1.1.6",
  "ImageComments": "V",
  "ImageOrientationPatientDICOM": [1, 0, 0, 0, 0.930418, -0.366501],
  "ImageOrientationText": "Tra>Cor(-21.5)",
  "ImageType": [
    "ORIGINAL",
    "PRIMARY",
    "M",
    "ND",
    "MOSAIC"
],
  "ImagingFrequency": 123.251849,
  "InPlanePhaseEncodingDirectionDICOM": "COL",
  "InstitutionAddress": "Chaucer Road  15,Cambridge,UK,GB,CB2 2EF",
  "InstitutionName": "MRC-CBU",
  "MRAcquisitionType": "2D",
  "MagneticFieldStrength": 3,
  "Manufacturer": "Siemens",
  "ManufacturersModelName": "TrioTim",
  "MatrixCoilMode": "SENSE",
  "Modality": "MR",
  "NonlinearGradientCorrection": false,
  "PartialFourier": 1,
  "PatientPosition": "HFS",
  "PercentPhaseFOV": 100,
  "PercentSampling": 100,
  "PhaseEncodingDirection": "j-",
  "PhaseEncodingSteps": 64,
  "PhaseResolution": 1,
  "PixelBandwidth": 2230,
  "ProcedureStepDescription": "CBU^Neuroimaging",
  "ProtocolName": "CBU_DWEPI_BOLD210",
  "PulseSequenceDetails": "%SiemensSeq%\\ep2d_bold",
  "ReceiveCoilName": "HeadMatrix",
  "ReconMatrixPE": 64,
  "RepetitionTime": 2,
  "SAR": 0.139265,
  "ScanOptions": "FS",
  "ScanningSequence": "EP",
  "SequenceName": "*epfid2d1_64",
  "SequenceVariant": "SK",
  "SeriesDescription": "CBU_DWEPI_BOLD210",
  "SeriesNumber": 3,
  "ShimSetting": [-7830, -8787, -2019, 718, 120, -76, -200, 113],
  "SliceThickness": 3,
  "SliceTiming": [0, 1.035, 0.0625, 1.095, 0.1225, 1.1575, 0.1825, 1.2175, 0.245, 1.2775, 0.305, 1.34, 0.365, 1.4, 0.4275, 1.46, 0.4875, 1.5225, 0.5475, 1.5825, 0.61, 1.6425, 0.67, 1.705, 0.73, 1.765, 0.7925, 1.825, 0.8525, 1.8875, 0.9125, 1.9475, 0.975],
  "SoftwareVersions": "syngo MR B15",
  "SpacingBetweenSlices": 4.05,
  "StationName": "MRC35119",
  "TaskName": "faceprocessing",
  "TotalReadoutTime": 0.0321303,
  "TxRefAmp": 337.525,
  "dcmmeta_affine": [
    [-3.0, 0.0, 0.0, 100.06779479980469],
    [0.0, 2.7912540435791016, -1.484329104423523, -50.150306701660156],
    [0.0, 1.0995030403137207, 3.768193006515503, -71.61522674560547],
    [0.0, 0.0, 0.0, 1.0]
],
  "dcmmeta_reorient_transform": [
    [0.0, -1.0, 0.0, 63.0],
    [1.0, 0.0, 0.0, 0.0],
    [0.0, 0.0, 1.0, 0.0],
    [0.0, 0.0, 0.0, 1.0]
],
  "dcmmeta_shape": [64, 64, 33, 210],
  "dcmmeta_slice_dim": 2,
  "dcmmeta_version": 0.6,
  "global": {
    "const": {
      "AcquisitionMatrix": [64, 0, 0, 64],
      "AngioFlag": "N",
      "BitsAllocated": 16,
      "BitsStored": 12,
      "Columns": 384,
      "EchoNumbers": 1,
      "EchoTime": 30.0,
      "EchoTrainLength": 1,
      "FlipAngle": 78.0,
      "HighBit": 11,
      "ImageOrientationPatient": [1.0, 0.0, 0.0, 0.0, 0.930418, -0.366501],
      "ImagePositionPatient": [-580.067797, -572.299334, 173.573946],
      "ImageType": [
        "ORIGINAL",
        "PRIMARY",
        "M",
        "ND",
        "MOSAIC"
],
      "ImagedNucleus": "1H",
      "ImagingFrequency": 123.251849,
      "InPlanePhaseEncodingDirection": "COL",
      "MRAcquisitionType": "2D",
      "MagneticFieldStrength": 3.0,
      "Manufacturer": "SIEMENS",
      "ManufacturerModelName": "TrioTim",
      "Modality": "MR",
      "NumberOfAverages": 1.0,
      "NumberOfPhaseEncodingSteps": 64,
      "PercentPhaseFieldOfView": 100.0,
      "PercentSampling": 100.0,
      "PerformedProcedureStepStartTime": "164313.515000",
      "PhotometricInterpretation": "MONOCHROME2",
      "PixelAspectRatio": [1, 1],
      "PixelBandwidth": 2230.0,
      "PixelRepresentation": 0,
      "PixelSpacing": [3.0, 3.0],
      "ProtocolName": "CBU_DWEPI_BOLD210",
      "RepetitionTime": 2000.0,
      "Rows": 384,
      "SAR": 0.139265,
      "SamplesPerPixel": 1,
      "ScanOptions": "FS",
      "ScanningSequence": "EP",
      "SequenceName": "*epfid2d1_64",
      "SequenceVariant": "SK",
      "SeriesDescription": "CBU_DWEPI_BOLD210",
      "SeriesNumber": 3,
      "SeriesTime": "165302.656000",
      "SliceLocation": -48.252169,
      "SliceThickness": 3.0,
      "SmallestImagePixelValue": 0,
      "SoftwareVersions": "syngo MR B15",
      "SpacingBetweenSlices": 4.05,
      "SpecificCharacterSet": "ISO_IR 100",
      "StudyID": "1",
      "StudyTime": "164313.453000",
      "TransmitCoilName": "Body",
      "VariableFlipAngleFlag": "N",
      "WindowCenterWidthExplanation": "Algo1",
      "dBdt": 0.0},
    "slices": {}
  },
  "time": {
    "samples": {
      "AcquisitionNumber": [1, 2, 3, 4, 5, 6, 7, 8, 9, 10, 11, 12, 13, 14, 15, 16, 17, 18, 19, 20, 21, 22, 23, 24, 25, 26, 27, 28, 29, 30, 31, 32, 33, 34, 35, 36, 37, 38, 39, 40, 41, 42, 43, 44, 45, 46, 47, 48, 49, 50, 51, 52, 53, 54, 55, 56, 57, 58, 59, 60, 61, 62, 63, 64, 65, 66, 67, 68, 69, 70, 71, 72, 73, 74, 75, 76, 77, 78, 79, 80, 81, 82, 83, 84, 85, 86, 87, 88, 89, 90, 91, 92, 93, 94, 95, 96, 97, 98, 99, 100, 101, 102, 103, 104, 105, 106, 107, 108, 109, 110, 111, 112, 113, 114, 115, 116, 117, 118, 119, 120, 121, 122, 123, 124, 125, 126, 127, 128, 129, 130, 131, 132, 133, 134, 135, 136, 137, 138, 139, 140, 141, 142, 143, 144, 145, 146, 147, 148, 149, 150, 151, 152, 153, 154, 155, 156, 157, 158, 159, 160, 161, 162, 163, 164, 165, 166, 167, 168, 169, 170, 171, 172, 173, 174, 175, 176, 177, 178, 179, 180, 181, 182, 183, 184, 185, 186, 187, 188, 189, 190, 191, 192, 193, 194, 195, 196, 197, 198, 199, 200, 201, 202, 203, 204, 205, 206, 207, 208, 209, 210],
      "AcquisitionTime": ["165259.682500", "165301.692500", "165303.700000", "165305.707500", "165307.715000", "165309.725000", "165311.732500", "165313.740000", "165315.747500", "165317.755000", "165319.765000", "165321.772500", "165323.780000", "165325.787500", "165327.795000", "165329.805000", "165331.812500", "165333.820000", "165335.827500", "165337.837500", "165339.845000", "165341.852500", "165343.860000", "165345.867500", "165347.877500", "165349.885000", "165351.892500", "165353.900000", "165355.907500", "165357.917500", "165359.925000", "165401.932500", "165403.940000", "165405.947500", "165407.957500", "165409.965000", "165411.972500", "165413.980000", "165415.990000", "165417.997500", "165420.005000", "165422.012500", "165424.020000", "165426.030000", "165428.037500", "165430.045000", "165432.052500", "165434.060000", "165436.070000", "165438.077500", "165440.085000", "165442.092500", "165444.102500", "165446.110000", "165448.117500", "165450.125000", "165452.132500", "165454.142500", "165456.150000", "165458.157500", "165500.165000", "165502.172500", "165504.182500", "165506.190000", "165508.197500", "165510.205000", "165512.215000", "165514.222500", "165516.230000", "165518.237500", "165520.245000", "165522.255000", "165524.262500", "165526.270000", "165528.277500", "165530.285000", "165532.295000", "165534.302500", "165536.310000", "165538.317500", "165540.327500", "165542.335000", "165544.342500", "165546.350000", "165548.357500", "165550.367500", "165552.375000", "165554.382500", "165556.390000", "165558.397500", "165600.407500", "165602.415000", "165604.422500", "165606.430000", "165608.437500", "165610.447500", "165612.455000", "165614.462500", "165616.470000", "165618.480000", "165620.487500", "165622.495000", "165624.502500", "165626.510000", "165628.520000", "165630.527500", "165632.535000", "165634.542500", "165636.550000", "165638.560000", "165640.567500", "165642.575000", "165644.582500", "165646.592500", "165648.600000", "165650.607500", "165652.615000", "165654.622500", "165656.632500", "165658.640000", "165700.647500", "165702.655000", "165704.662500", "165706.672500", "165708.680000", "165710.687500", "165712.695000", "165714.705000", "165716.712500", "165718.720000", "165720.727500", "165722.735000", "165724.745000", "165726.752500", "165728.760000", "165730.767500", "165732.775000", "165734.785000", "165736.792500", "165738.800000", "165740.807500", "165742.815000", "165744.825000", "165746.832500", "165748.840000", "165750.847500", "165752.857500", "165754.865000", "165756.872500", "165758.880000", "165800.887500", "165802.897500", "165804.905000", "165806.912500", "165808.920000", "165810.927500", "165812.937500", "165814.945000", "165816.952500", "165818.960000", "165820.970000", "165822.977500", "165824.985000", "165826.992500", "165829.000000", "165831.010000", "165833.017500", "165835.025000", "165837.032500", "165839.040000", "165841.050000", "165843.057500", "165845.065000", "165847.072500", "165849.082500", "165851.090000", "165853.097500", "165855.105000", "165857.112500", "165859.122500", "165901.130000", "165903.137500", "165905.145000", "165907.152500", "165909.162500", "165911.170000", "165913.177500", "165915.185000", "165917.192500", "165919.202500", "165921.210000", "165923.217500", "165925.225000", "165927.235000", "165929.242500", "165931.250000", "165933.257500", "165935.265000", "165937.275000", "165939.282500", "165941.290000", "165943.297500", "165945.305000", "165947.315000", "165949.322500", "165951.330000", "165953.337500", "165955.347500", "165957.355000", "165959.362500"],
      "ContentTime": ["165302.656000", "165304.640000", "165306.640000", "165308.640000", "165310.640000", "165312.640000", "165314.640000", "165316.640000", "165318.640000", "165320.640000", "165322.640000", "165324.640000", "165326.640000", "165328.640000", "165330.640000", "165332.640000", "165334.640000", "165336.640000", "165339.140000", "165340.640000", "165342.640000", "165344.640000", "165346.640000", "165348.640000", "165350.640000", "165352.640000", "165354.640000", "165356.640000", "165359.140000", "165400.640000", "165402.640000", "165404.640000", "165406.640000", "165408.640000", "165410.640000", "165413.140000", "165414.640000", "165416.640000", "165418.656000", "165420.640000", "165422.640000", "165424.640000", "165427.140000", "165428.640000", "165430.640000", "165432.640000", "165435.140000", "165436.640000", "165438.640000", "165440.640000", "165442.640000", "165444.640000", "165446.640000", "165448.640000", "165450.640000", "165452.640000", "165454.640000", "165456.656000", "165458.640000", "165500.640000", "165502.640000", "165504.640000", "165506.640000", "165508.640000", "165510.640000", "165512.640000", "165514.656000", "165516.640000", "165518.640000", "165521.140000", "165522.640000", "165524.640000", "165526.640000", "165528.640000", "165530.640000", "165532.640000", "165534.640000", "165536.640000", "165538.640000", "165540.640000", "165542.640000", "165544.640000", "165546.640000", "165548.640000", "165550.640000", "165552.640000", "165554.640000", "165556.640000", "165558.640000", "165600.640000", "165602.640000", "165604.640000", "165607.140000", "165608.640000", "165610.640000", "165612.640000", "165614.640000", "165616.640000", "165618.640000", "165620.640000", "165622.640000", "165624.640000", "165626.656000", "165628.640000", "165631.140000", "165632.640000", "165634.640000", "165636.656000", "165638.640000", "165640.640000", "165642.640000", "165644.640000", "165646.640000", "165648.640000", "165651.140000", "165652.640000", "165654.656000", "165656.640000", "165658.640000", "165700.640000", "165702.640000", "165704.640000", "165706.640000", "165708.640000", "165710.640000", "165712.640000", "165714.640000", "165716.640000", "165718.640000", "165720.640000", "165722.640000", "165724.640000", "165726.640000", "165728.640000", "165730.640000", "165733.140000", "165734.640000", "165736.640000", "165738.640000", "165740.656000", "165743.140000", "165744.640000", "165746.640000", "165748.640000", "165750.640000", "165752.640000", "165755.140000", "165756.640000", "165758.640000", "165801.140000", "165802.640000", "165804.640000", "165807.140000", "165808.640000", "165810.640000", "165812.640000", "165814.640000", "165817.140000", "165818.640000", "165820.640000", "165822.640000", "165824.640000", "165826.640000", "165828.640000", "165830.640000", "165832.640000", "165834.640000", "165836.640000", "165839.140000", "165840.640000", "165843.140000", "165845.140000", "165846.640000", "165848.640000", "165851.140000", "165852.640000", "165854.640000", "165856.640000", "165858.640000", "165900.640000", "165902.640000", "165904.640000", "165906.640000", "165908.640000", "165911.140000", "165912.640000", "165914.640000", "165916.640000", "165918.640000", "165920.640000", "165922.640000", "165924.640000", "165926.640000", "165928.640000", "165930.640000", "165932.640000", "165934.640000", "165936.640000", "165938.640000", "165940.640000", "165942.640000", "165944.640000", "165946.640000", "165948.640000", "165950.640000", "165952.640000", "165954.640000", "165956.640000", "165958.640000", "170000.531000"],
      "InstanceCreationTime": ["165302.656000", "165304.640000", "165306.640000", "165308.640000", "165310.640000", "165312.640000", "165314.640000", "165316.640000", "165318.640000", "165320.640000", "165322.640000", "165324.640000", "165326.640000", "165328.640000", "165330.640000", "165332.640000", "165334.640000", "165336.640000", "165339.140000", "165340.640000", "165342.640000", "165344.640000", "165346.640000", "165348.640000", "165350.640000", "165352.640000", "165354.640000", "165356.640000", "165359.140000", "165400.640000", "165402.640000", "165404.640000", "165406.640000", "165408.640000", "165410.640000", "165413.140000", "165414.640000", "165416.640000", "165418.656000", "165420.640000", "165422.640000", "165424.640000", "165427.140000", "165428.640000", "165430.640000", "165432.640000", "165435.140000", "165436.640000", "165438.640000", "165440.640000", "165442.640000", "165444.640000", "165446.640000", "165448.640000", "165450.640000", "165452.640000", "165454.640000", "165456.656000", "165458.640000", "165500.640000", "165502.640000", "165504.640000", "165506.640000", "165508.640000", "165510.640000", "165512.640000", "165514.656000", "165516.640000", "165518.640000", "165521.140000", "165522.640000", "165524.640000", "165526.640000", "165528.640000", "165530.640000", "165532.640000", "165534.640000", "165536.640000", "165538.640000", "165540.640000", "165542.640000", "165544.640000", "165546.640000", "165548.640000", "165550.640000", "165552.640000", "165554.640000", "165556.640000", "165558.640000", "165600.640000", "165602.640000", "165604.640000", "165607.140000", "165608.640000", "165610.640000", "165612.640000", "165614.640000", "165616.640000", "165618.640000", "165620.640000", "165622.640000", "165624.640000", "165626.656000", "165628.640000", "165631.140000", "165632.640000", "165634.640000", "165636.656000", "165638.640000", "165640.640000", "165642.640000", "165644.640000", "165646.640000", "165648.640000", "165651.140000", "165652.640000", "165654.656000", "165656.640000", "165658.640000", "165700.640000", "165702.640000", "165704.640000", "165706.640000", "165708.640000", "165710.640000", "165712.640000", "165714.640000", "165716.640000", "165718.640000", "165720.640000", "165722.640000", "165724.640000", "165726.640000", "165728.640000", "165730.640000", "165733.140000", "165734.640000", "165736.640000", "165738.640000", "165740.656000", "165743.140000", "165744.640000", "165746.640000", "165748.640000", "165750.640000", "165752.640000", "165755.140000", "165756.640000", "165758.640000", "165801.140000", "165802.640000", "165804.640000", "165807.140000", "165808.640000", "165810.640000", "165812.640000", "165814.640000", "165817.140000", "165818.640000", "165820.640000", "165822.640000", "165824.640000", "165826.640000", "165828.640000", "165830.640000", "165832.640000", "165834.640000", "165836.640000", "165839.140000", "165840.640000", "165843.140000", "165845.140000", "165846.640000", "165848.640000", "165851.140000", "165852.640000", "165854.640000", "165856.640000", "165858.640000", "165900.640000", "165902.640000", "165904.640000", "165906.640000", "165908.640000", "165911.140000", "165912.640000", "165914.640000", "165916.640000", "165918.640000", "165920.640000", "165922.640000", "165924.640000", "165926.640000", "165928.640000", "165930.640000", "165932.640000", "165934.640000", "165936.640000", "165938.640000", "165940.640000", "165942.640000", "165944.640000", "165946.640000", "165948.640000", "165950.640000", "165952.640000", "165954.640000", "165956.640000", "165958.640000", "170000.531000"],
      "InstanceNumber": [1, 2, 3, 4, 5, 6, 7, 8, 9, 10, 11, 12, 13, 14, 15, 16, 17, 18, 19, 20, 21, 22, 23, 24, 25, 26, 27, 28, 29, 30, 31, 32, 33, 34, 35, 36, 37, 38, 39, 40, 41, 42, 43, 44, 45, 46, 47, 48, 49, 50, 51, 52, 53, 54, 55, 56, 57, 58, 59, 60, 61, 62, 63, 64, 65, 66, 67, 68, 69, 70, 71, 72, 73, 74, 75, 76, 77, 78, 79, 80, 81, 82, 83, 84, 85, 86, 87, 88, 89, 90, 91, 92, 93, 94, 95, 96, 97, 98, 99, 100, 101, 102, 103, 104, 105, 106, 107, 108, 109, 110, 111, 112, 113, 114, 115, 116, 117, 118, 119, 120, 121, 122, 123, 124, 125, 126, 127, 128, 129, 130, 131, 132, 133, 134, 135, 136, 137, 138, 139, 140, 141, 142, 143, 144, 145, 146, 147, 148, 149, 150, 151, 152, 153, 154, 155, 156, 157, 158, 159, 160, 161, 162, 163, 164, 165, 166, 167, 168, 169, 170, 171, 172, 173, 174, 175, 176, 177, 178, 179, 180, 181, 182, 183, 184, 185, 186, 187, 188, 189, 190, 191, 192, 193, 194, 195, 196, 197, 198, 199, 200, 201, 202, 203, 204, 205, 206, 207, 208, 209, 210],
      "LargestImagePixelValue": [1991, 1886, 1849, 1850, 1847, 1862, 1840, 1838, 1850, 1837, 1838, 1850, 1844, 1852, 1862, 1859, 1856, 1851, 1854, 1831, 1835, 1851, 1833, 1870, 1873, 1868, 1845, 1864, 1857, 1835, 1861, 1844, 1880, 1854, 1864, 1834, 1877, 1833, 1858, 1857, 1861, 1848, 1833, 1838, 1845, 1833, 1844, 1851, 1851, 1813, 1862, 1839, 1844, 1878, 1865, 1854, 1866, 1842, 1850, 1851, 1838, 1857, 1876, 1850, 1862, 1870, 1854, 1829, 1836, 1845, 1816, 1851, 1870, 1836, 1867, 1837, 1843, 1867, 1826, 1857, 1832, 1838, 1860, 1837, 1856, 1834, 1848, 1839, 1847, 1857, 1831, 1824, 1862, 1837, 1823, 1835, 1842, 1876, 1840, 1848, 1817, 1861, 1835, 1854, 1857, 1874, 1870, 1878, 1863, 1851, 1860, 1857, 1835, 1865, 1872, 1875, 1844, 1860, 1844, 1843, 1871, 1844, 1866, 1845, 1841, 1866, 1865, 1860, 1870, 1866, 1855, 1870, 1837, 1868, 1852, 1860, 1870, 1885, 1853, 1853, 1863, 1853, 1858, 1880, 1867, 1862, 1867, 1874, 1839, 1872, 1850, 1853, 1876, 1852, 1867, 1862, 1884, 1850, 1868, 1840, 1851, 1863, 1863, 1864, 1825, 1858, 1847, 1858, 1837, 1842, 1830, 1837, 1859, 1875, 1906, 1868, 1868, 1870, 1872, 1880, 1877, 1872, 1869, 1850, 1903, 1860, 1869, 1856, 1870, 1869, 1864, 1874, 1849, 1862, 1867, 1847, 1868, 1861, 1838, 1828, 1825, 1865, 1858, 1840, 1850, 1835, 1886, 1853, 1888, 1867],
      "WindowCenter": [756.0, 753.0, 752.0, 752.0, 753.0, 753.0, 753.0, 752.0, 753.0, 752.0, 752.0, 752.0, 753.0, 753.0, 752.0, 753.0, 753.0, 752.0, 752.0, 752.0, 752.0, 752.0, 752.0, 752.0, 752.0, 752.0, 752.0, 752.0, 752.0, 752.0, 753.0, 753.0, 754.0, 754.0, 754.0, 754.0, 754.0, 753.0, 753.0, 752.0, 752.0, 752.0, 752.0, 752.0, 752.0, 751.0, 752.0, 752.0, 752.0, 752.0, 752.0, 753.0, 752.0, 752.0, 751.0, 751.0, 751.0, 751.0, 752.0, 752.0, 752.0, 753.0, 753.0, 754.0, 753.0, 752.0, 752.0, 752.0, 753.0, 753.0, 753.0, 753.0, 753.0, 752.0, 752.0, 752.0, 752.0, 753.0, 753.0, 752.0, 753.0, 753.0, 753.0, 753.0, 753.0, 753.0, 753.0, 754.0, 754.0, 754.0, 753.0, 752.0, 752.0, 752.0, 752.0, 752.0, 752.0, 753.0, 754.0, 754.0, 755.0, 754.0, 754.0, 752.0, 752.0, 751.0, 751.0, 752.0, 751.0, 752.0, 752.0, 752.0, 753.0, 754.0, 753.0, 752.0, 752.0, 752.0, 752.0, 752.0, 753.0, 753.0, 754.0, 754.0, 753.0, 753.0, 753.0, 754.0, 754.0, 754.0, 754.0, 753.0, 754.0, 753.0, 753.0, 753.0, 753.0, 753.0, 753.0, 752.0, 752.0, 753.0, 753.0, 753.0, 753.0, 753.0, 753.0, 753.0, 753.0, 754.0, 754.0, 753.0, 753.0, 754.0, 754.0, 754.0, 754.0, 753.0, 753.0, 753.0, 753.0, 753.0, 753.0, 754.0, 754.0, 755.0, 754.0, 754.0, 753.0, 754.0, 756.0, 756.0, 754.0, 752.0, 751.0, 752.0, 753.0, 754.0, 754.0, 753.0, 753.0, 753.0, 753.0, 752.0, 752.0, 752.0, 752.0, 752.0, 753.0, 753.0, 753.0, 754.0, 754.0, 754.0, 754.0, 754.0, 754.0, 755.0, 755.0, 755.0, 755.0, 755.0, 754.0, 754.0, 754.0, 754.0, 754.0, 754.0, 754.0, 755.0],
      "WindowWidth": [1593.0, 1585.0, 1583.0, 1583.0, 1584.0, 1585.0, 1584.0, 1583.0, 1584.0, 1582.0, 1582.0, 1583.0, 1583.0, 1584.0, 1583.0, 1584.0, 1584.0, 1583.0, 1582.0, 1582.0, 1582.0, 1582.0, 1582.0, 1582.0, 1582.0, 1582.0, 1582.0, 1583.0, 1583.0, 1583.0, 1584.0, 1585.0, 1587.0, 1588.0, 1587.0, 1586.0, 1587.0, 1585.0, 1585.0, 1583.0, 1583.0, 1583.0, 1583.0, 1583.0, 1582.0, 1581.0, 1582.0, 1583.0, 1583.0, 1582.0, 1583.0, 1584.0, 1582.0, 1581.0, 1580.0, 1579.0, 1580.0, 1581.0, 1581.0, 1581.0, 1582.0, 1585.0, 1585.0, 1586.0, 1584.0, 1582.0, 1582.0, 1581.0, 1585.0, 1585.0, 1586.0, 1585.0, 1584.0, 1582.0, 1582.0, 1582.0, 1583.0, 1584.0, 1584.0, 1583.0, 1584.0, 1583.0, 1585.0, 1585.0, 1585.0, 1584.0, 1585.0, 1587.0, 1587.0, 1588.0, 1585.0, 1583.0, 1582.0, 1582.0, 1582.0, 1582.0, 1582.0, 1584.0, 1587.0, 1586.0, 1588.0, 1587.0, 1587.0, 1583.0, 1581.0, 1580.0, 1581.0, 1581.0, 1581.0, 1581.0, 1581.0, 1582.0, 1586.0, 1587.0, 1584.0, 1583.0, 1582.0, 1583.0, 1582.0, 1583.0, 1584.0, 1584.0, 1587.0, 1586.0, 1584.0, 1584.0, 1586.0, 1586.0, 1587.0, 1586.0, 1586.0, 1585.0, 1586.0, 1586.0, 1584.0, 1583.0, 1584.0, 1585.0, 1583.0, 1583.0, 1583.0, 1584.0, 1584.0, 1584.0, 1585.0, 1584.0, 1584.0, 1585.0, 1585.0, 1587.0, 1586.0, 1585.0, 1585.0, 1586.0, 1586.0, 1587.0, 1586.0, 1584.0, 1585.0, 1585.0, 1585.0, 1585.0, 1586.0, 1587.0, 1588.0, 1589.0, 1588.0, 1586.0, 1585.0, 1588.0, 1592.0, 1591.0, 1586.0, 1582.0, 1580.0, 1582.0, 1585.0, 1587.0, 1586.0, 1585.0, 1585.0, 1585.0, 1584.0, 1583.0, 1583.0, 1582.0, 1581.0, 1583.0, 1584.0, 1584.0, 1586.0, 1586.0, 1587.0, 1587.0, 1587.0, 1588.0, 1587.0, 1589.0, 1590.0, 1590.0, 1589.0, 1588.0, 1587.0, 1587.0, 1587.0, 1588.0, 1587.0, 1587.0, 1587.0, 1588.0]
    },
    "slices": {}
  }
}