{
  "AcquisitionMatrixPE": 64,
  "AcquisitionNumber": 1,
  "AcquisitionTime": "17:07:59.030000",
  "BandwidthPerPixelPhaseEncode": 30.637,
  "BaseResolution": 64,
  "BidsGuess": [
    "func",
    "_acq-epfid2_dir-AP_run-5_bold"
],
  "CoilCombinationMethod": "Sum of Squares",
  "CoilString": "C:HEA;HEP",
  "ConversionSoftware": "dcm2niix",
  "ConversionSoftwareVersion": "v1.0.20240202",
  "DerivedVendorReportedEchoSpacing": 0.000510004,
  "DeviceSerialNumber": "35119",
  "DwellTime": 3.5e-06,
  "EchoTime": 0.03,
  "EffectiveEchoSpacing": 0.000510004,
  "FlipAngle": 78,
  "HeudiconvVersion": "1.1.6",
  "ImageComments": "V",
  "ImageOrientationPatientDICOM": [1, 0, 0, 0, 0.930418, -0.366501],
  "ImageOrientationText": "Tra>Cor(-21.5)",
  "ImageType": [
    "ORIGINAL",
    "PRIMARY",
    "M",
    "ND",
    "MOSAIC"
],
  "ImagingFrequency": 123.251851,
  "InPlanePhaseEncodingDirectionDICOM": "COL",
  "InstitutionAddress": "Chaucer Road  15,Cambridge,UK,GB,CB2 2EF",
  "InstitutionName": "MRC-CBU",
  "MRAcquisitionType": "2D",
  "MagneticFieldStrength": 3,
  "Manufacturer": "Siemens",
  "ManufacturersModelName": "TrioTim",
  "MatrixCoilMode": "SENSE",
  "Modality": "MR",
  "NonlinearGradientCorrection": false,
  "PartialFourier": 1,
  "PatientPosition": "HFS",
  "PercentPhaseFOV": 100,
  "PercentSampling": 100,
  "PhaseEncodingDirection": "j-",
  "PhaseEncodingSteps": 64,
  "PhaseResolution": 1,
  "PixelBandwidth": 2230,
  "ProcedureStepDescription": "CBU^Neuroimaging",
  "ProtocolName": "CBU_DWEPI_BOLD210",
  "PulseSequenceDetails": "%SiemensSeq%\\ep2d_bold",
  "ReceiveCoilName": "HeadMatrix",
  "ReconMatrixPE": 64,
  "RepetitionTime": 2,
  "SAR": 0.139265,
  "ScanOptions": "FS",
  "ScanningSequence": "EP",
  "SequenceName": "*epfid2d1_64",
  "SequenceVariant": "SK",
  "SeriesDescription": "CBU_DWEPI_BOLD210",
  "SeriesNumber": 5,
  "ShimSetting": [-7830, -8787, -2019, 718, 120, -76, -200, 113],
  "SliceThickness": 3,
  "SliceTiming": [0, 1.035, 0.0625, 1.095, 0.1225, 1.1575, 0.1825, 1.2175, 0.245, 1.2775, 0.305, 1.34, 0.365, 1.4, 0.4275, 1.46, 0.4875, 1.5225, 0.5475, 1.5825, 0.61, 1.6425, 0.67, 1.705, 0.73, 1.765, 0.7925, 1.825, 0.8525, 1.8875, 0.9125, 1.9475, 0.975],
  "SoftwareVersions": "syngo MR B15",
  "SpacingBetweenSlices": 4.05,
  "StationName": "MRC35119",
  "TaskName": "faceprocessing",
  "TotalReadoutTime": 0.0321303,
  "TxRefAmp": 337.525,
  "dcmmeta_affine": [
    [-3.0, 0.0, 0.0, 100.06779479980469],
    [0.0, 2.7912540435791016, -1.484329104423523, -50.150306701660156],
    [0.0, 1.0995030403137207, 3.768193006515503, -71.61522674560547],
    [0.0, 0.0, 0.0, 1.0]
],
  "dcmmeta_reorient_transform": [
    [0.0, -1.0, 0.0, 63.0],
    [1.0, 0.0, 0.0, 0.0],
    [0.0, 0.0, 1.0, 0.0],
    [0.0, 0.0, 0.0, 1.0]
],
  "dcmmeta_shape": [64, 64, 33, 210],
  "dcmmeta_slice_dim": 2,
  "dcmmeta_version": 0.6,
  "global": {
    "const": {
      "AcquisitionMatrix": [64, 0, 0, 64],
      "AngioFlag": "N",
      "BitsAllocated": 16,
      "BitsStored": 12,
      "Columns": 384,
      "EchoNumbers": 1,
      "EchoTime": 30.0,
      "EchoTrainLength": 1,
      "FlipAngle": 78.0,
      "HighBit": 11,
      "ImageOrientationPatient": [1.0, 0.0, 0.0, 0.0, 0.930418, -0.366501],
      "ImagePositionPatient": [-580.067797, -572.299334, 173.573946],
      "ImageType": [
        "ORIGINAL",
        "PRIMARY",
        "M",
        "ND",
        "MOSAIC"
],
      "ImagedNucleus": "1H",
      "ImagingFrequency": 123.251851,
      "InPlanePhaseEncodingDirection": "COL",
      "MRAcquisitionType": "2D",
      "MagneticFieldStrength": 3.0,
      "Manufacturer": "SIEMENS",
      "ManufacturerModelName": "TrioTim",
      "Modality": "MR",
      "NumberOfAverages": 1.0,
      "NumberOfPhaseEncodingSteps": 64,
      "PercentPhaseFieldOfView": 100.0,
      "PercentSampling": 100.0,
      "PerformedProcedureStepStartTime": "164313.515000",
      "PhotometricInterpretation": "MONOCHROME2",
      "PixelAspectRatio": [1, 1],
      "PixelBandwidth": 2230.0,
      "PixelRepresentation": 0,
      "PixelSpacing": [3.0, 3.0],
      "ProtocolName": "CBU_DWEPI_BOLD210",
      "RepetitionTime": 2000.0,
      "Rows": 384,
      "SAR": 0.139265,
      "SamplesPerPixel": 1,
      "ScanOptions": "FS",
      "ScanningSequence": "EP",
      "SequenceName": "*epfid2d1_64",
      "SequenceVariant": "SK",
      "SeriesDescription": "CBU_DWEPI_BOLD210",
      "SeriesNumber": 5,
      "SeriesTime": "170802.750000",
      "SliceLocation": -48.252169,
      "SliceThickness": 3.0,
      "SmallestImagePixelValue": 0,
      "SoftwareVersions": "syngo MR B15",
      "SpacingBetweenSlices": 4.05,
      "SpecificCharacterSet": "ISO_IR 100",
      "StudyID": "1",
      "StudyTime": "164313.453000",
      "TransmitCoilName": "Body",
      "VariableFlipAngleFlag": "N",
      "WindowCenterWidthExplanation": "Algo1",
      "dBdt": 0.0},
    "slices": {}
  },
  "time": {
    "samples": {
      "AcquisitionNumber": [1, 2, 3, 4, 5, 6, 7, 8, 9, 10, 11, 12, 13, 14, 15, 16, 17, 18, 19, 20, 21, 22, 23, 24, 25, 26, 27, 28, 29, 30, 31, 32, 33, 34, 35, 36, 37, 38, 39, 40, 41, 42, 43, 44, 45, 46, 47, 48, 49, 50, 51, 52, 53, 54, 55, 56, 57, 58, 59, 60, 61, 62, 63, 64, 65, 66, 67, 68, 69, 70, 71, 72, 73, 74, 75, 76, 77, 78, 79, 80, 81, 82, 83, 84, 85, 86, 87, 88, 89, 90, 91, 92, 93, 94, 95, 96, 97, 98, 99, 100, 101, 102, 103, 104, 105, 106, 107, 108, 109, 110, 111, 112, 113, 114, 115, 116, 117, 118, 119, 120, 121, 122, 123, 124, 125, 126, 127, 128, 129, 130, 131, 132, 133, 134, 135, 136, 137, 138, 139, 140, 141, 142, 143, 144, 145, 146, 147, 148, 149, 150, 151, 152, 153, 154, 155, 156, 157, 158, 159, 160, 161, 162, 163, 164, 165, 166, 167, 168, 169, 170, 171, 172, 173, 174, 175, 176, 177, 178, 179, 180, 181, 182, 183, 184, 185, 186, 187, 188, 189, 190, 191, 192, 193, 194, 195, 196, 197, 198, 199, 200, 201, 202, 203, 204, 205, 206, 207, 208, 209, 210],
      "AcquisitionTime": ["170759.030000", "170801.040000", "170803.047500", "170805.055000", "170807.062500", "170809.070000", "170811.080000", "170813.087500", "170815.095000", "170817.102500", "170819.110000", "170821.120000", "170823.127500", "170825.135000", "170827.142500", "170829.152500", "170831.160000", "170833.167500", "170835.175000", "170837.182500", "170839.192500", "170841.200000", "170843.207500", "170845.215000", "170847.222500", "170849.232500", "170851.240000", "170853.247500", "170855.255000", "170857.265000", "170859.272500", "170901.280000", "170903.287500", "170905.295000", "170907.305000", "170909.312500", "170911.320000", "170913.327500", "170915.335000", "170917.345000", "170919.352500", "170921.360000", "170923.367500", "170925.375000", "170927.385000", "170929.392500", "170931.400000", "170933.407500", "170935.417500", "170937.425000", "170939.432500", "170941.440000", "170943.447500", "170945.457500", "170947.465000", "170949.472500", "170951.480000", "170953.487500", "170955.497500", "170957.505000", "170959.512500", "171001.520000", "171003.530000", "171005.537500", "171007.545000", "171009.552500", "171011.560000", "171013.570000", "171015.577500", "171017.585000", "171019.592500", "171021.600000", "171023.610000", "171025.617500", "171027.625000", "171029.632500", "171031.642500", "171033.650000", "171035.657500", "171037.665000", "171039.672500", "171041.682500", "171043.690000", "171045.697500", "171047.705000", "171049.712500", "171051.722500", "171053.730000", "171055.737500", "171057.745000", "171059.755000", "171101.762500", "171103.770000", "171105.777500", "171107.785000", "171109.795000", "171111.802500", "171113.810000", "171115.817500", "171117.825000", "171119.835000", "171121.842500", "171123.850000", "171125.857500", "171127.865000", "171129.875000", "171131.882500", "171133.890000", "171135.897500", "171137.907500", "171139.915000", "171141.922500", "171143.930000", "171145.937500", "171147.947500", "171149.955000", "171151.962500", "171153.970000", "171155.977500", "171157.987500", "171159.995000", "171202.002500", "171204.010000", "171206.020000", "171208.027500", "171210.035000", "171212.042500", "171214.050000", "171216.060000", "171218.067500", "171220.075000", "171222.082500", "171224.090000", "171226.100000", "171228.107500", "171230.115000", "171232.122500", "171234.132500", "171236.140000", "171238.147500", "171240.155000", "171242.162500", "171244.172500", "171246.180000", "171248.187500", "171250.195000", "171252.202500", "171254.212500", "171256.220000", "171258.227500", "171300.235000", "171302.242500", "171304.252500", "171306.260000", "171308.267500", "171310.275000", "171312.285000", "171314.292500", "171316.300000", "171318.307500", "171320.315000", "171322.325000", "171324.332500", "171326.340000", "171328.347500", "171330.355000", "171332.365000", "171334.372500", "171336.380000", "171338.387500", "171340.397500", "171342.405000", "171344.412500", "171346.420000", "171348.427500", "171350.437500", "171352.445000", "171354.452500", "171356.460000", "171358.467500", "171400.477500", "171402.485000", "171404.492500", "171406.500000", "171408.510000", "171410.517500", "171412.525000", "171414.532500", "171416.540000", "171418.550000", "171420.557500", "171422.565000", "171424.572500", "171426.580000", "171428.590000", "171430.597500", "171432.605000", "171434.612500", "171436.620000", "171438.630000", "171440.637500", "171442.645000", "171444.652500", "171446.662500", "171448.670000", "171450.677500", "171452.685000", "171454.692500", "171456.702500", "171458.710000"],
      "ContentTime": ["170802.750000", "170804.750000", "170806.750000", "170808.750000", "170810.750000", "170812.750000", "170814.750000", "170816.750000", "170818.750000", "170820.750000", "170822.750000", "170824.750000", "170826.750000", "170828.750000", "170830.750000", "170832.750000", "170834.750000", "170836.750000", "170838.750000", "170840.750000", "170842.750000", "170844.750000", "170846.750000", "170848.750000", "170850.750000", "170852.750000", "170854.750000", "170856.750000", "170858.750000", "170900.750000", "170902.750000", "170904.750000", "170906.750000", "170908.750000", "170910.750000", "170912.750000", "170914.750000", "170916.750000", "170918.750000", "170920.750000", "170922.750000", "170924.750000", "170926.750000", "170928.750000", "170930.750000", "170932.750000", "170934.750000", "170936.750000", "170938.750000", "170940.750000", "170942.750000", "170944.750000", "170946.750000", "170948.750000", "170950.750000", "170952.750000", "170954.750000", "170956.750000", "170958.750000", "171000.750000", "171002.750000", "171004.750000", "171006.750000", "171008.750000", "171010.750000", "171012.750000", "171014.750000", "171016.750000", "171018.750000", "171020.750000", "171022.750000", "171024.750000", "171026.750000", "171028.750000", "171030.750000", "171032.750000", "171034.750000", "171036.750000", "171038.750000", "171040.750000", "171042.750000", "171044.750000", "171046.750000", "171048.750000", "171050.750000", "171052.750000", "171054.750000", "171056.750000", "171058.750000", "171100.750000", "171102.750000", "171104.750000", "171106.750000", "171108.750000", "171110.750000", "171112.750000", "171114.750000", "171116.750000", "171118.750000", "171120.750000", "171122.750000", "171124.750000", "171126.750000", "171128.750000", "171130.750000", "171132.750000", "171134.750000", "171136.750000", "171138.750000", "171140.750000", "171142.750000", "171144.750000", "171146.750000", "171148.750000", "171150.750000", "171152.750000", "171154.750000", "171156.750000", "171158.750000", "171200.750000", "171202.750000", "171204.750000", "171206.750000", "171208.750000", "171210.750000", "171212.750000", "171214.750000", "171216.750000", "171218.750000", "171220.750000", "171222.750000", "171224.750000", "171226.750000", "171228.750000", "171230.750000", "171232.750000", "171234.750000", "171236.750000", "171238.750000", "171240.750000", "171242.750000", "171244.750000", "171246.750000", "171248.750000", "171250.750000", "171252.750000", "171254.750000", "171256.750000", "171258.750000", "171300.750000", "171302.750000", "171304.750000", "171306.750000", "171308.750000", "171310.750000", "171312.750000", "171314.750000", "171316.750000", "171318.750000", "171320.750000", "171322.750000", "171324.750000", "171326.750000", "171328.750000", "171330.750000", "171332.750000", "171334.750000", "171336.750000", "171338.750000", "171340.750000", "171342.750000", "171344.750000", "171346.750000", "171348.750000", "171350.750000", "171352.750000", "171354.750000", "171356.750000", "171358.750000", "171400.750000", "171402.750000", "171404.750000", "171406.750000", "171408.750000", "171410.750000", "171412.750000", "171414.750000", "171416.750000", "171418.750000", "171420.750000", "171422.750000", "171424.750000", "171426.750000", "171428.750000", "171430.750000", "171432.750000", "171434.750000", "171436.750000", "171438.750000", "171440.750000", "171442.750000", "171444.750000", "171446.750000", "171448.750000", "171450.750000", "171452.750000", "171454.750000", "171456.750000", "171458.750000", "171500.515000"],
      "InstanceCreationTime": ["170802.750000", "170804.750000", "170806.750000", "170808.750000", "170810.750000", "170812.750000", "170814.750000", "170816.750000", "170818.750000", "170820.750000", "170822.750000", "170824.750000", "170826.750000", "170828.750000", "170830.750000", "170832.750000", "170834.750000", "170836.750000", "170838.750000", "170840.750000", "170842.750000", "170844.750000", "170846.750000", "170848.750000", "170850.750000", "170852.750000", "170854.750000", "170856.750000", "170858.750000", "170900.750000", "170902.750000", "170904.750000", "170906.750000", "170908.750000", "170910.750000", "170912.750000", "170914.750000", "170916.750000", "170918.750000", "170920.750000", "170922.750000", "170924.750000", "170926.750000", "170928.750000", "170930.750000", "170932.750000", "170934.750000", "170936.750000", "170938.750000", "170940.750000", "170942.750000", "170944.750000", "170946.750000", "170948.750000", "170950.750000", "170952.750000", "170954.750000", "170956.750000", "170958.750000", "171000.750000", "171002.750000", "171004.750000", "171006.750000", "171008.750000", "171010.750000", "171012.750000", "171014.750000", "171016.750000", "171018.750000", "171020.750000", "171022.750000", "171024.750000", "171026.750000", "171028.750000", "171030.750000", "171032.750000", "171034.750000", "171036.750000", "171038.750000", "171040.750000", "171042.750000", "171044.750000", "171046.750000", "171048.750000", "171050.750000", "171052.750000", "171054.750000", "171056.750000", "171058.750000", "171100.750000", "171102.750000", "171104.750000", "171106.750000", "171108.750000", "171110.750000", "171112.750000", "171114.750000", "171116.750000", "171118.750000", "171120.750000", "171122.750000", "171124.750000", "171126.750000", "171128.750000", "171130.750000", "171132.750000", "171134.750000", "171136.750000", "171138.750000", "171140.750000", "171142.750000", "171144.750000", "171146.750000", "171148.750000", "171150.750000", "171152.750000", "171154.750000", "171156.750000", "171158.750000", "171200.750000", "171202.750000", "171204.750000", "171206.750000", "171208.750000", "171210.750000", "171212.750000", "171214.750000", "171216.750000", "171218.750000", "171220.750000", "171222.750000", "171224.750000", "171226.750000", "171228.750000", "171230.750000", "171232.750000", "171234.750000", "171236.750000", "171238.750000", "171240.750000", "171242.750000", "171244.750000", "171246.750000", "171248.750000", "171250.750000", "171252.750000", "171254.750000", "171256.750000", "171258.750000", "171300.750000", "171302.750000", "171304.750000", "171306.750000", "171308.750000", "171310.750000", "171312.750000", "171314.750000", "171316.750000", "171318.750000", "171320.750000", "171322.750000", "171324.750000", "171326.750000", "171328.750000", "171330.750000", "171332.750000", "171334.750000", "171336.750000", "171338.750000", "171340.750000", "171342.750000", "171344.750000", "171346.750000", "171348.750000", "171350.750000", "171352.750000", "171354.750000", "171356.750000", "171358.750000", "171400.750000", "171402.750000", "171404.750000", "171406.750000", "171408.750000", "171410.750000", "171412.750000", "171414.750000", "171416.750000", "171418.750000", "171420.750000", "171422.750000", "171424.750000", "171426.750000", "171428.750000", "171430.750000", "171432.750000", "171434.750000", "171436.750000", "171438.750000", "171440.750000", "171442.750000", "171444.750000", "171446.750000", "171448.750000", "171450.750000", "171452.750000", "171454.750000", "171456.750000", "171458.750000", "171500.515000"],
      "InstanceNumber": [1, 2, 3, 4, 5, 6, 7, 8, 9, 10, 11, 12, 13, 14, 15, 16, 17, 18, 19, 20, 21, 22, 23, 24, 25, 26, 27, 28, 29, 30, 31, 32, 33, 34, 35, 36, 37, 38, 39, 40, 41, 42, 43, 44, 45, 46, 47, 48, 49, 50, 51, 52, 53, 54, 55, 56, 57, 58, 59, 60, 61, 62, 63, 64, 65, 66, 67, 68, 69, 70, 71, 72, 73, 74, 75, 76, 77, 78, 79, 80, 81, 82, 83, 84, 85, 86, 87, 88, 89, 90, 91, 92, 93, 94, 95, 96, 97, 98, 99, 100, 101, 102, 103, 104, 105, 106, 107, 108, 109, 110, 111, 112, 113, 114, 115, 116, 117, 118, 119, 120, 121, 122, 123, 124, 125, 126, 127, 128, 129, 130, 131, 132, 133, 134, 135, 136, 137, 138, 139, 140, 141, 142, 143, 144, 145, 146, 147, 148, 149, 150, 151, 152, 153, 154, 155, 156, 157, 158, 159, 160, 161, 162, 163, 164, 165, 166, 167, 168, 169, 170, 171, 172, 173, 174, 175, 176, 177, 178, 179, 180, 181, 182, 183, 184, 185, 186, 187, 188, 189, 190, 191, 192, 193, 194, 195, 196, 197, 198, 199, 200, 201, 202, 203, 204, 205, 206, 207, 208, 209, 210],
      "LargestImagePixelValue": [2114, 1891, 1861, 1929, 1940, 1842, 1848, 1851, 1935, 1843, 1849, 1861, 1873, 1874, 1859, 1877, 1866, 1861, 1867, 1874, 1889, 1883, 1851, 1858, 1873, 1872, 1879, 1875, 1838, 1833, 1866, 1864, 1847, 1850, 1855, 1881, 1880, 1848, 1873, 1857, 1863, 1861, 1859, 1859, 1903, 1870, 1888, 1890, 1877, 1872, 1882, 1900, 1895, 1885, 1864, 1887, 1905, 1897, 1907, 1878, 1870, 1888, 1882, 1875, 1874, 1877, 1866, 1863, 1881, 1884, 1907, 1881, 1909, 1881, 1902, 1902, 1904, 1873, 1883, 1883, 1880, 1882, 1910, 1886, 1901, 1896, 1889, 1886, 1882, 1896, 1890, 1880, 1889, 1875, 1893, 1869, 1881, 1887, 1877, 1875, 1876, 1887, 1867, 1869, 1920, 1892, 1895, 1886, 1891, 1878, 1874, 1874, 1866, 1856, 1893, 1862, 1861, 1834, 1851, 1888, 1901, 1888, 1878, 1890, 1890, 1903, 1893, 1921, 1892, 1881, 1878, 1877, 1901, 1908, 1868, 1893, 1882, 1905, 1914, 1908, 1894, 1914, 1887, 1900, 1892, 1856, 1930, 1912, 1924, 1907, 1883, 1869, 1896, 1922, 1878, 1876, 1864, 1869, 1881, 1869, 1868, 1897, 1891, 1889, 1889, 1854, 1879, 1882, 1876, 1864, 1862, 1874, 1885, 1878, 1893, 1874, 1888, 1884, 1861, 1868, 1882, 1858, 1885, 1872, 1857, 1868, 1875, 1879, 1882, 1840, 1873, 1850, 1890, 1927, 1898, 1907, 1884, 1948, 1897, 1909, 1885, 1894, 1909, 1911, 1910, 1922, 1907, 1908, 1872, 1886],
      "WindowCenter": [766.0, 760.0, 758.0, 758.0, 758.0, 758.0, 758.0, 757.0, 757.0, 757.0, 756.0, 755.0, 755.0, 755.0, 755.0, 755.0, 756.0, 756.0, 755.0, 756.0, 756.0, 756.0, 756.0, 756.0, 756.0, 756.0, 756.0, 757.0, 757.0, 757.0, 757.0, 757.0, 757.0, 758.0, 757.0, 757.0, 757.0, 757.0, 758.0, 758.0, 757.0, 758.0, 758.0, 757.0, 756.0, 755.0, 756.0, 757.0, 757.0, 757.0, 758.0, 758.0, 758.0, 759.0, 759.0, 757.0, 756.0, 755.0, 755.0, 755.0, 756.0, 757.0, 758.0, 758.0, 758.0, 759.0, 760.0, 760.0, 759.0, 758.0, 757.0, 756.0, 756.0, 756.0, 756.0, 756.0, 756.0, 756.0, 756.0, 756.0, 757.0, 758.0, 759.0, 758.0, 758.0, 758.0, 759.0, 761.0, 761.0, 759.0, 758.0, 757.0, 757.0, 758.0, 758.0, 757.0, 757.0, 757.0, 757.0, 757.0, 757.0, 757.0, 757.0, 757.0, 757.0, 757.0, 757.0, 757.0, 758.0, 759.0, 760.0, 760.0, 760.0, 759.0, 760.0, 760.0, 761.0, 760.0, 760.0, 758.0, 758.0, 757.0, 757.0, 757.0, 757.0, 757.0, 757.0, 758.0, 758.0, 759.0, 760.0, 759.0, 757.0, 757.0, 757.0, 758.0, 757.0, 757.0, 757.0, 756.0, 756.0, 757.0, 757.0, 758.0, 759.0, 758.0, 757.0, 756.0, 758.0, 758.0, 760.0, 760.0, 760.0, 760.0, 760.0, 760.0, 761.0, 760.0, 759.0, 758.0, 758.0, 757.0, 758.0, 758.0, 758.0, 758.0, 758.0, 758.0, 758.0, 758.0, 759.0, 759.0, 758.0, 758.0, 758.0, 759.0, 759.0, 760.0, 761.0, 762.0, 762.0, 762.0, 761.0, 760.0, 760.0, 759.0, 759.0, 758.0, 759.0, 758.0, 757.0, 757.0, 757.0, 758.0, 758.0, 758.0, 758.0, 759.0, 759.0, 759.0, 759.0, 759.0, 758.0, 759.0, 759.0, 761.0, 761.0, 759.0, 759.0, 759.0],
      "WindowWidth": [1617.0, 1601.0, 1597.0, 1596.0, 1597.0, 1596.0, 1595.0, 1593.0, 1594.0, 1593.0, 1592.0, 1590.0, 1590.0, 1589.0, 1589.0, 1589.0, 1591.0, 1591.0, 1590.0, 1590.0, 1592.0, 1592.0, 1592.0, 1591.0, 1591.0, 1590.0, 1592.0, 1593.0, 1594.0, 1593.0, 1594.0, 1594.0, 1594.0, 1595.0, 1594.0, 1594.0, 1594.0, 1594.0, 1596.0, 1596.0, 1595.0, 1597.0, 1597.0, 1593.0, 1591.0, 1590.0, 1592.0, 1594.0, 1595.0, 1594.0, 1595.0, 1597.0, 1596.0, 1600.0, 1599.0, 1594.0, 1592.0, 1590.0, 1590.0, 1589.0, 1592.0, 1594.0, 1595.0, 1595.0, 1596.0, 1599.0, 1601.0, 1602.0, 1599.0, 1595.0, 1594.0, 1592.0, 1592.0, 1590.0, 1590.0, 1590.0, 1591.0, 1590.0, 1591.0, 1591.0, 1593.0, 1596.0, 1598.0, 1596.0, 1595.0, 1595.0, 1600.0, 1603.0, 1602.0, 1598.0, 1596.0, 1595.0, 1594.0, 1596.0, 1596.0, 1594.0, 1594.0, 1595.0, 1595.0, 1593.0, 1593.0, 1593.0, 1594.0, 1594.0, 1595.0, 1594.0, 1595.0, 1595.0, 1596.0, 1599.0, 1600.0, 1600.0, 1600.0, 1599.0, 1601.0, 1602.0, 1604.0, 1602.0, 1600.0, 1597.0, 1596.0, 1593.0, 1594.0, 1594.0, 1593.0, 1593.0, 1594.0, 1596.0, 1596.0, 1598.0, 1600.0, 1598.0, 1594.0, 1594.0, 1594.0, 1596.0, 1594.0, 1594.0, 1593.0, 1592.0, 1593.0, 1594.0, 1594.0, 1597.0, 1598.0, 1595.0, 1594.0, 1592.0, 1595.0, 1598.0, 1601.0, 1601.0, 1601.0, 1602.0, 1601.0, 1602.0, 1604.0, 1601.0, 1598.0, 1596.0, 1595.0, 1595.0, 1595.0, 1596.0, 1597.0, 1596.0, 1597.0, 1597.0, 1597.0, 1597.0, 1598.0, 1598.0, 1597.0, 1597.0, 1597.0, 1598.0, 1600.0, 1601.0, 1603.0, 1605.0, 1607.0, 1605.0, 1604.0, 1601.0, 1600.0, 1598.0, 1597.0, 1597.0, 1598.0, 1596.0, 1595.0, 1593.0, 1594.0, 1595.0, 1596.0, 1597.0, 1597.0, 1598.0, 1598.0, 1599.0, 1599.0, 1598.0, 1597.0, 1598.0, 1600.0, 1603.0, 1603.0, 1598.0, 1598.0, 1597.0]
    },
    "slices": {}
  }
}