{
  "AcquisitionMatrixPE": 64,
  "AcquisitionNumber": 1,
  "AcquisitionTime": "17:31:15.050000",
  "BandwidthPerPixelPhaseEncode": 30.637,
  "BaseResolution": 64,
  "BidsGuess": [
    "func",
    "_acq-epfid2_dir-AP_run-8_bold"
],
  "CoilCombinationMethod": "Sum of Squares",
  "CoilString": "C:HEA;HEP",
  "ConversionSoftware": "dcm2niix",
  "ConversionSoftwareVersion": "v1.0.20240202",
  "DerivedVendorReportedEchoSpacing": 0.000510004,
  "DeviceSerialNumber": "35119",
  "DwellTime": 3.5e-06,
  "EchoTime": 0.03,
  "EffectiveEchoSpacing": 0.000510004,
  "FlipAngle": 78,
  "HeudiconvVersion": "1.1.6",
  "ImageComments": "V",
  "ImageOrientationPatientDICOM": [1, 0, 0, 0, 0.930418, -0.366501],
  "ImageOrientationText": "Tra>Cor(-21.5)",
  "ImageType": [
    "ORIGINAL",
    "PRIMARY",
    "M",
    "ND",
    "MOSAIC"
],
  "ImagingFrequency": 123.251851,
  "InPlanePhaseEncodingDirectionDICOM": "COL",
  "InstitutionAddress": "Chaucer Road  15,Cambridge,UK,GB,CB2 2EF",
  "InstitutionName": "MRC-CBU",
  "MRAcquisitionType": "2D",
  "MagneticFieldStrength": 3,
  "Manufacturer": "Siemens",
  "ManufacturersModelName": "TrioTim",
  "MatrixCoilMode": "SENSE",
  "Modality": "MR",
  "NonlinearGradientCorrection": false,
  "PartialFourier": 1,
  "PatientPosition": "HFS",
  "PercentPhaseFOV": 100,
  "PercentSampling": 100,
  "PhaseEncodingDirection": "j-",
  "PhaseEncodingSteps": 64,
  "PhaseResolution": 1,
  "PixelBandwidth": 2230,
  "ProcedureStepDescription": "CBU^Neuroimaging",
  "ProtocolName": "CBU_DWEPI_BOLD210",
  "PulseSequenceDetails": "%SiemensSeq%\\ep2d_bold",
  "ReceiveCoilName": "HeadMatrix",
  "ReconMatrixPE": 64,
  "RepetitionTime": 2,
  "SAR": 0.139265,
  "ScanOptions": "FS",
  "ScanningSequence": "EP",
  "SequenceName": "*epfid2d1_64",
  "SequenceVariant": "SK",
  "SeriesDescription": "CBU_DWEPI_BOLD210",
  "SeriesNumber": 8,
  "ShimSetting": [-7830, -8787, -2019, 718, 120, -76, -200, 113],
  "SliceThickness": 3,
  "SliceTiming": [0, 1.035, 0.0625, 1.095, 0.1225, 1.1575, 0.1825, 1.2175, 0.245, 1.2775, 0.305, 1.34, 0.365, 1.4, 0.4275, 1.46, 0.4875, 1.5225, 0.5475, 1.5825, 0.61, 1.6425, 0.67, 1.705, 0.73, 1.765, 0.7925, 1.825, 0.8525, 1.8875, 0.9125, 1.9475, 0.975],
  "SoftwareVersions": "syngo MR B15",
  "SpacingBetweenSlices": 4.05,
  "StationName": "MRC35119",
  "TaskName": "faceprocessing",
  "TotalReadoutTime": 0.0321303,
  "TxRefAmp": 337.525,
  "dcmmeta_affine": [
    [-3.0, 0.0, 0.0, 100.06779479980469],
    [0.0, 2.7912540435791016, -1.484329104423523, -50.150306701660156],
    [0.0, 1.0995030403137207, 3.768193006515503, -71.61522674560547],
    [0.0, 0.0, 0.0, 1.0]
],
  "dcmmeta_reorient_transform": [
    [0.0, -1.0, 0.0, 63.0],
    [1.0, 0.0, 0.0, 0.0],
    [0.0, 0.0, 1.0, 0.0],
    [0.0, 0.0, 0.0, 1.0]
],
  "dcmmeta_shape": [64, 64, 33, 210],
  "dcmmeta_slice_dim": 2,
  "dcmmeta_version": 0.6,
  "global": {
    "const": {
      "AcquisitionMatrix": [64, 0, 0, 64],
      "AngioFlag": "N",
      "BitsAllocated": 16,
      "BitsStored": 12,
      "Columns": 384,
      "EchoNumbers": 1,
      "EchoTime": 30.0,
      "EchoTrainLength": 1,
      "FlipAngle": 78.0,
      "HighBit": 11,
      "ImageOrientationPatient": [1.0, 0.0, 0.0, 0.0, 0.930418, -0.366501],
      "ImagePositionPatient": [-580.067797, -572.299334, 173.573946],
      "ImageType": [
        "ORIGINAL",
        "PRIMARY",
        "M",
        "ND",
        "MOSAIC"
],
      "ImagedNucleus": "1H",
      "ImagingFrequency": 123.251851,
      "InPlanePhaseEncodingDirection": "COL",
      "MRAcquisitionType": "2D",
      "MagneticFieldStrength": 3.0,
      "Manufacturer": "SIEMENS",
      "ManufacturerModelName": "TrioTim",
      "Modality": "MR",
      "NumberOfAverages": 1.0,
      "NumberOfPhaseEncodingSteps": 64,
      "PercentPhaseFieldOfView": 100.0,
      "PercentSampling": 100.0,
      "PerformedProcedureStepStartTime": "164313.515000",
      "PhotometricInterpretation": "MONOCHROME2",
      "PixelAspectRatio": [1, 1],
      "PixelBandwidth": 2230.0,
      "PixelRepresentation": 0,
      "PixelSpacing": [3.0, 3.0],
      "ProtocolName": "CBU_DWEPI_BOLD210",
      "RepetitionTime": 2000.0,
      "Rows": 384,
      "SAR": 0.139265,
      "SamplesPerPixel": 1,
      "ScanOptions": "FS",
      "ScanningSequence": "EP",
      "SequenceName": "*epfid2d1_64",
      "SequenceVariant": "SK",
      "SeriesDescription": "CBU_DWEPI_BOLD210",
      "SeriesNumber": 8,
      "SeriesTime": "173118.671000",
      "SliceLocation": -48.252169,
      "SliceThickness": 3.0,
      "SmallestImagePixelValue": 0,
      "SoftwareVersions": "syngo MR B15",
      "SpacingBetweenSlices": 4.05,
      "SpecificCharacterSet": "ISO_IR 100",
      "StudyID": "1",
      "StudyTime": "164313.453000",
      "TransmitCoilName": "Body",
      "VariableFlipAngleFlag": "N",
      "WindowCenterWidthExplanation": "Algo1",
      "dBdt": 0.0},
    "slices": {}
  },
  "time": {
    "samples": {
      "AcquisitionNumber": [1, 2, 3, 4, 5, 6, 7, 8, 9, 10, 11, 12, 13, 14, 15, 16, 17, 18, 19, 20, 21, 22, 23, 24, 25, 26, 27, 28, 29, 30, 31, 32, 33, 34, 35, 36, 37, 38, 39, 40, 41, 42, 43, 44, 45, 46, 47, 48, 49, 50, 51, 52, 53, 54, 55, 56, 57, 58, 59, 60, 61, 62, 63, 64, 65, 66, 67, 68, 69, 70, 71, 72, 73, 74, 75, 76, 77, 78, 79, 80, 81, 82, 83, 84, 85, 86, 87, 88, 89, 90, 91, 92, 93, 94, 95, 96, 97, 98, 99, 100, 101, 102, 103, 104, 105, 106, 107, 108, 109, 110, 111, 112, 113, 114, 115, 116, 117, 118, 119, 120, 121, 122, 123, 124, 125, 126, 127, 128, 129, 130, 131, 132, 133, 134, 135, 136, 137, 138, 139, 140, 141, 142, 143, 144, 145, 146, 147, 148, 149, 150, 151, 152, 153, 154, 155, 156, 157, 158, 159, 160, 161, 162, 163, 164, 165, 166, 167, 168, 169, 170, 171, 172, 173, 174, 175, 176, 177, 178, 179, 180, 181, 182, 183, 184, 185, 186, 187, 188, 189, 190, 191, 192, 193, 194, 195, 196, 197, 198, 199, 200, 201, 202, 203, 204, 205, 206, 207, 208, 209, 210],
      "AcquisitionTime": ["173115.050000", "173117.060000", "173119.067500", "173121.075000", "173123.082500", "173125.090000", "173127.100000", "173129.107500", "173131.115000", "173133.122500", "173135.132500", "173137.140000", "173139.147500", "173141.155000", "173143.162500", "173145.172500", "173147.180000", "173149.187500", "173151.195000", "173153.202500", "173155.212500", "173157.220000", "173159.227500", "173201.235000", "173203.245000", "173205.252500", "173207.260000", "173209.267500", "173211.275000", "173213.285000", "173215.292500", "173217.300000", "173219.307500", "173221.315000", "173223.325000", "173225.332500", "173227.340000", "173229.347500", "173231.357500", "173233.365000", "173235.372500", "173237.380000", "173239.387500", "173241.397500", "173243.405000", "173245.412500", "173247.420000", "173249.427500", "173251.437500", "173253.445000", "173255.452500", "173257.460000", "173259.467500", "173301.477500", "173303.485000", "173305.492500", "173307.500000", "173309.510000", "173311.517500", "173313.525000", "173315.532500", "173317.540000", "173319.550000", "173321.557500", "173323.565000", "173325.572500", "173327.580000", "173329.590000", "173331.597500", "173333.605000", "173335.612500", "173337.622500", "173339.630000", "173341.637500", "173343.645000", "173345.652500", "173347.662500", "173349.670000", "173351.677500", "173353.685000", "173355.692500", "173357.702500", "173359.710000", "173401.717500", "173403.725000", "173405.735000", "173407.742500", "173409.750000", "173411.757500", "173413.765000", "173415.775000", "173417.782500", "173419.790000", "173421.797500", "173423.805000", "173425.815000", "173427.822500", "173429.830000", "173431.837500", "173433.847500", "173435.855000", "173437.862500", "173439.870000", "173441.877500", "173443.887500", "173445.895000", "173447.902500", "173449.910000", "173451.917500", "173453.927500", "173455.935000", "173457.942500", "173459.950000", "173501.957500", "173503.967500", "173505.975000", "173507.982500", "173509.990000", "173512.000000", "173514.007500", "173516.015000", "173518.022500", "173520.030000", "173522.040000", "173524.047500", "173526.055000", "173528.062500", "173530.070000", "173532.080000", "173534.087500", "173536.095000", "173538.102500", "173540.112500", "173542.120000", "173544.127500", "173546.135000", "173548.142500", "173550.152500", "173552.160000", "173554.167500", "173556.175000", "173558.182500", "173600.192500", "173602.200000", "173604.207500", "173606.215000", "173608.225000", "173610.232500", "173612.240000", "173614.247500", "173616.255000", "173618.265000", "173620.272500", "173622.280000", "173624.287500", "173626.295000", "173628.305000", "173630.312500", "173632.320000", "173634.327500", "173636.335000", "173638.345000", "173640.352500", "173642.360000", "173644.367500", "173646.377500", "173648.385000", "173650.392500", "173652.400000", "173654.407500", "173656.417500", "173658.425000", "173700.432500", "173702.440000", "173704.447500", "173706.457500", "173708.465000", "173710.472500", "173712.480000", "173714.490000", "173716.497500", "173718.505000", "173720.512500", "173722.520000", "173724.530000", "173726.537500", "173728.545000", "173730.552500", "173732.560000", "173734.570000", "173736.577500", "173738.585000", "173740.592500", "173742.602500", "173744.610000", "173746.617500", "173748.625000", "173750.632500", "173752.642500", "173754.650000", "173756.657500", "173758.665000", "173800.672500", "173802.682500", "173804.690000", "173806.697500", "173808.705000", "173810.712500", "173812.722500", "173814.730000"],
      "ContentTime": ["173118.687000", "173120.671000", "173122.671000", "173124.671000", "173126.671000", "173128.671000", "173130.671000", "173132.671000", "173134.671000", "173136.671000", "173138.671000", "173140.671000", "173142.671000", "173144.671000", "173146.671000", "173148.671000", "173150.671000", "173152.671000", "173154.671000", "173156.671000", "173158.671000", "173200.671000", "173202.671000", "173204.671000", "173206.671000", "173208.671000", "173210.671000", "173212.671000", "173214.671000", "173216.671000", "173218.671000", "173220.671000", "173222.671000", "173224.671000", "173226.671000", "173228.671000", "173230.671000", "173232.671000", "173234.671000", "173236.671000", "173238.671000", "173240.671000", "173242.671000", "173244.671000", "173246.671000", "173248.671000", "173250.671000", "173252.671000", "173254.671000", "173256.671000", "173258.671000", "173300.671000", "173302.671000", "173304.671000", "173306.671000", "173308.671000", "173310.671000", "173312.671000", "173314.671000", "173316.671000", "173318.671000", "173320.671000", "173322.671000", "173324.671000", "173326.671000", "173328.671000", "173330.671000", "173332.671000", "173334.671000", "173336.671000", "173338.671000", "173340.671000", "173342.671000", "173344.671000", "173346.671000", "173348.671000", "173350.671000", "173352.671000", "173354.671000", "173356.671000", "173358.671000", "173400.671000", "173402.671000", "173404.671000", "173406.671000", "173408.671000", "173410.671000", "173412.671000", "173414.671000", "173416.671000", "173418.671000", "173420.671000", "173422.671000", "173424.671000", "173426.671000", "173428.671000", "173430.671000", "173432.671000", "173434.671000", "173436.671000", "173438.671000", "173440.671000", "173442.671000", "173444.671000", "173446.671000", "173448.671000", "173450.671000", "173452.671000", "173454.671000", "173456.671000", "173458.671000", "173500.671000", "173502.671000", "173504.671000", "173506.671000", "173508.671000", "173510.671000", "173512.671000", "173514.671000", "173516.671000", "173518.671000", "173520.671000", "173522.671000", "173524.671000", "173526.671000", "173528.671000", "173530.671000", "173532.671000", "173534.671000", "173536.671000", "173538.671000", "173540.671000", "173542.671000", "173544.671000", "173546.671000", "173548.671000", "173550.671000", "173552.671000", "173554.671000", "173556.671000", "173558.671000", "173600.671000", "173602.671000", "173604.671000", "173606.671000", "173608.671000", "173610.671000", "173612.671000", "173614.671000", "173616.671000", "173618.671000", "173620.671000", "173622.671000", "173624.671000", "173626.671000", "173628.671000", "173630.671000", "173632.671000", "173634.671000", "173636.671000", "173638.671000", "173640.671000", "173642.671000", "173644.671000", "173646.671000", "173648.671000", "173650.671000", "173652.671000", "173654.671000", "173656.671000", "173658.671000", "173700.671000", "173702.671000", "173704.671000", "173706.671000", "173708.671000", "173710.671000", "173712.671000", "173714.671000", "173716.671000", "173718.671000", "173720.671000", "173722.671000", "173724.671000", "173726.671000", "173728.671000", "173730.671000", "173732.671000", "173734.671000", "173736.671000", "173738.671000", "173740.671000", "173742.671000", "173744.671000", "173746.671000", "173748.671000", "173750.671000", "173752.671000", "173754.671000", "173756.671000", "173758.671000", "173800.671000", "173802.671000", "173804.671000", "173806.671000", "173808.671000", "173810.671000", "173812.671000", "173814.671000", "173816.218000"],
      "InstanceCreationTime": ["173118.687000", "173120.671000", "173122.671000", "173124.671000", "173126.671000", "173128.671000", "173130.671000", "173132.671000", "173134.671000", "173136.671000", "173138.671000", "173140.671000", "173142.671000", "173144.671000", "173146.671000", "173148.671000", "173150.671000", "173152.671000", "173154.671000", "173156.671000", "173158.671000", "173200.671000", "173202.671000", "173204.671000", "173206.671000", "173208.671000", "173210.671000", "173212.671000", "173214.671000", "173216.671000", "173218.671000", "173220.671000", "173222.671000", "173224.671000", "173226.671000", "173228.671000", "173230.671000", "173232.671000", "173234.671000", "173236.671000", "173238.671000", "173240.671000", "173242.671000", "173244.671000", "173246.671000", "173248.671000", "173250.671000", "173252.671000", "173254.671000", "173256.671000", "173258.671000", "173300.671000", "173302.671000", "173304.671000", "173306.671000", "173308.671000", "173310.671000", "173312.671000", "173314.671000", "173316.671000", "173318.671000", "173320.671000", "173322.671000", "173324.671000", "173326.671000", "173328.671000", "173330.671000", "173332.671000", "173334.671000", "173336.671000", "173338.671000", "173340.671000", "173342.671000", "173344.671000", "173346.671000", "173348.671000", "173350.671000", "173352.671000", "173354.671000", "173356.671000", "173358.671000", "173400.671000", "173402.671000", "173404.671000", "173406.671000", "173408.671000", "173410.671000", "173412.671000", "173414.671000", "173416.671000", "173418.671000", "173420.671000", "173422.671000", "173424.671000", "173426.671000", "173428.671000", "173430.671000", "173432.671000", "173434.671000", "173436.671000", "173438.671000", "173440.671000", "173442.671000", "173444.671000", "173446.671000", "173448.671000", "173450.671000", "173452.671000", "173454.671000", "173456.671000", "173458.671000", "173500.671000", "173502.671000", "173504.671000", "173506.671000", "173508.671000", "173510.671000", "173512.671000", "173514.671000", "173516.671000", "173518.671000", "173520.671000", "173522.671000", "173524.671000", "173526.671000", "173528.671000", "173530.671000", "173532.671000", "173534.671000", "173536.671000", "173538.671000", "173540.671000", "173542.671000", "173544.671000", "173546.671000", "173548.671000", "173550.671000", "173552.671000", "173554.671000", "173556.671000", "173558.671000", "173600.671000", "173602.671000", "173604.671000", "173606.671000", "173608.671000", "173610.671000", "173612.671000", "173614.671000", "173616.671000", "173618.671000", "173620.671000", "173622.671000", "173624.671000", "173626.671000", "173628.671000", "173630.671000", "173632.671000", "173634.671000", "173636.671000", "173638.671000", "173640.671000", "173642.671000", "173644.671000", "173646.671000", "173648.671000", "173650.671000", "173652.671000", "173654.671000", "173656.671000", "173658.671000", "173700.671000", "173702.671000", "173704.671000", "173706.671000", "173708.671000", "173710.671000", "173712.671000", "173714.671000", "173716.671000", "173718.671000", "173720.671000", "173722.671000", "173724.671000", "173726.671000", "173728.671000", "173730.671000", "173732.671000", "173734.671000", "173736.671000", "173738.671000", "173740.671000", "173742.671000", "173744.671000", "173746.671000", "173748.671000", "173750.671000", "173752.671000", "173754.671000", "173756.671000", "173758.671000", "173800.671000", "173802.671000", "173804.671000", "173806.671000", "173808.671000", "173810.671000", "173812.671000", "173814.671000", "173816.218000"],
      "InstanceNumber": [1, 2, 3, 4, 5, 6, 7, 8, 9, 10, 11, 12, 13, 14, 15, 16, 17, 18, 19, 20, 21, 22, 23, 24, 25, 26, 27, 28, 29, 30, 31, 32, 33, 34, 35, 36, 37, 38, 39, 40, 41, 42, 43, 44, 45, 46, 47, 48, 49, 50, 51, 52, 53, 54, 55, 56, 57, 58, 59, 60, 61, 62, 63, 64, 65, 66, 67, 68, 69, 70, 71, 72, 73, 74, 75, 76, 77, 78, 79, 80, 81, 82, 83, 84, 85, 86, 87, 88, 89, 90, 91, 92, 93, 94, 95, 96, 97, 98, 99, 100, 101, 102, 103, 104, 105, 106, 107, 108, 109, 110, 111, 112, 113, 114, 115, 116, 117, 118, 119, 120, 121, 122, 123, 124, 125, 126, 127, 128, 129, 130, 131, 132, 133, 134, 135, 136, 137, 138, 139, 140, 141, 142, 143, 144, 145, 146, 147, 148, 149, 150, 151, 152, 153, 154, 155, 156, 157, 158, 159, 160, 161, 162, 163, 164, 165, 166, 167, 168, 169, 170, 171, 172, 173, 174, 175, 176, 177, 178, 179, 180, 181, 182, 183, 184, 185, 186, 187, 188, 189, 190, 191, 192, 193, 194, 195, 196, 197, 198, 199, 200, 201, 202, 203, 204, 205, 206, 207, 208, 209, 210],
      "LargestImagePixelValue": [2166, 2074, 2012, 2017, 2023, 2010, 2000, 2000, 2015, 2023, 2000, 1998, 2028, 2017, 2025, 2046, 2000, 2015, 2023, 2021, 2023, 2041, 2040, 2003, 2032, 2017, 1998, 2014, 2036, 2042, 2037, 2014, 2040, 2031, 2014, 2036, 2044, 2029, 2038, 2023, 2046, 2026, 2018, 2043, 2044, 2028, 2006, 2026, 2005, 2011, 2035, 2025, 2014, 2016, 1984, 2001, 2017, 1997, 2006, 2024, 2018, 2003, 1991, 1999, 2026, 1979, 2004, 2008, 2014, 1989, 2029, 2013, 1998, 1998, 2023, 1994, 2011, 1996, 2014, 1988, 2000, 2013, 2013, 1998, 2022, 2016, 2011, 2043, 2023, 2019, 2036, 2023, 2041, 2019, 2014, 2001, 1997, 1997, 1994, 2019, 1998, 2010, 2008, 2020, 1992, 2010, 1992, 1994, 1998, 1999, 2029, 2022, 2020, 2027, 1988, 2003, 2032, 2012, 2015, 2033, 1982, 2032, 2031, 1980, 2014, 2021, 2008, 2005, 2009, 1996, 2026, 2010, 2059, 2018, 2018, 1991, 2042, 2022, 2050, 2013, 2023, 2031, 2025, 2031, 2053, 2005, 2001, 2039, 1985, 1988, 2019, 1985, 1976, 2007, 2022, 2003, 2004, 2033, 2018, 2019, 2016, 2017, 2025, 2022, 2020, 2033, 2037, 2025, 2056, 2024, 2015, 2013, 1987, 1999, 1988, 1991, 1996, 2005, 1998, 1996, 2016, 1989, 2026, 2017, 2033, 2027, 2020, 2025, 2003, 2015, 1995, 2033, 2012, 1981, 1983, 2017, 2033, 2011, 2007, 1981, 2009, 2002, 1986, 2025, 2006, 2027, 1984, 1985, 2005, 2026],
      "WindowCenter": [768.0, 765.0, 764.0, 764.0, 764.0, 763.0, 762.0, 762.0, 762.0, 761.0, 761.0, 761.0, 761.0, 761.0, 761.0, 761.0, 761.0, 761.0, 760.0, 760.0, 760.0, 761.0, 761.0, 760.0, 761.0, 761.0, 761.0, 761.0, 760.0, 761.0, 762.0, 762.0, 761.0, 761.0, 761.0, 762.0, 762.0, 761.0, 762.0, 761.0, 761.0, 761.0, 761.0, 762.0, 762.0, 762.0, 762.0, 761.0, 761.0, 761.0, 761.0, 761.0, 761.0, 761.0, 761.0, 761.0, 761.0, 761.0, 761.0, 762.0, 762.0, 762.0, 762.0, 762.0, 763.0, 763.0, 762.0, 762.0, 762.0, 761.0, 762.0, 761.0, 762.0, 761.0, 761.0, 761.0, 762.0, 763.0, 764.0, 764.0, 764.0, 762.0, 761.0, 761.0, 761.0, 761.0, 761.0, 761.0, 761.0, 761.0, 761.0, 762.0, 762.0, 763.0, 763.0, 763.0, 764.0, 763.0, 763.0, 764.0, 763.0, 763.0, 762.0, 763.0, 763.0, 763.0, 762.0, 762.0, 762.0, 762.0, 762.0, 762.0, 762.0, 762.0, 763.0, 763.0, 763.0, 762.0, 762.0, 762.0, 762.0, 763.0, 764.0, 763.0, 762.0, 762.0, 762.0, 761.0, 763.0, 764.0, 763.0, 762.0, 761.0, 762.0, 763.0, 763.0, 762.0, 761.0, 761.0, 763.0, 763.0, 763.0, 762.0, 762.0, 763.0, 763.0, 763.0, 764.0, 764.0, 765.0, 765.0, 764.0, 765.0, 766.0, 765.0, 763.0, 762.0, 760.0, 760.0, 760.0, 760.0, 761.0, 760.0, 761.0, 761.0, 761.0, 762.0, 762.0, 762.0, 762.0, 763.0, 764.0, 764.0, 764.0, 763.0, 763.0, 763.0, 763.0, 764.0, 764.0, 764.0, 764.0, 765.0, 765.0, 764.0, 764.0, 763.0, 762.0, 762.0, 764.0, 766.0, 766.0, 766.0, 765.0, 764.0, 764.0, 764.0, 764.0, 763.0, 765.0, 765.0, 764.0, 762.0, 763.0, 764.0, 764.0, 765.0, 766.0, 765.0, 764.0],
      "WindowWidth": [1620.0, 1612.0, 1611.0, 1609.0, 1611.0, 1608.0, 1606.0, 1606.0, 1605.0, 1604.0, 1603.0, 1604.0, 1604.0, 1603.0, 1603.0, 1602.0, 1602.0, 1602.0, 1602.0, 1601.0, 1601.0, 1603.0, 1603.0, 1602.0, 1603.0, 1604.0, 1603.0, 1602.0, 1602.0, 1604.0, 1605.0, 1605.0, 1604.0, 1603.0, 1603.0, 1606.0, 1606.0, 1603.0, 1606.0, 1605.0, 1604.0, 1603.0, 1605.0, 1605.0, 1606.0, 1606.0, 1605.0, 1604.0, 1604.0, 1604.0, 1604.0, 1604.0, 1604.0, 1604.0, 1603.0, 1604.0, 1604.0, 1605.0, 1603.0, 1605.0, 1606.0, 1606.0, 1606.0, 1607.0, 1608.0, 1608.0, 1606.0, 1606.0, 1605.0, 1604.0, 1604.0, 1604.0, 1605.0, 1604.0, 1604.0, 1603.0, 1606.0, 1608.0, 1610.0, 1611.0, 1610.0, 1606.0, 1604.0, 1603.0, 1604.0, 1604.0, 1604.0, 1604.0, 1604.0, 1603.0, 1604.0, 1605.0, 1606.0, 1608.0, 1609.0, 1609.0, 1610.0, 1609.0, 1608.0, 1610.0, 1609.0, 1608.0, 1606.0, 1609.0, 1609.0, 1608.0, 1606.0, 1606.0, 1606.0, 1607.0, 1606.0, 1605.0, 1606.0, 1606.0, 1608.0, 1607.0, 1607.0, 1606.0, 1606.0, 1607.0, 1607.0, 1609.0, 1611.0, 1609.0, 1607.0, 1605.0, 1605.0, 1605.0, 1607.0, 1610.0, 1607.0, 1605.0, 1604.0, 1605.0, 1608.0, 1607.0, 1604.0, 1603.0, 1605.0, 1608.0, 1608.0, 1608.0, 1606.0, 1607.0, 1609.0, 1608.0, 1608.0, 1610.0, 1612.0, 1614.0, 1613.0, 1612.0, 1613.0, 1615.0, 1613.0, 1607.0, 1604.0, 1601.0, 1600.0, 1601.0, 1602.0, 1602.0, 1601.0, 1603.0, 1604.0, 1605.0, 1605.0, 1606.0, 1607.0, 1606.0, 1607.0, 1610.0, 1612.0, 1611.0, 1608.0, 1608.0, 1609.0, 1609.0, 1610.0, 1610.0, 1611.0, 1611.0, 1612.0, 1614.0, 1612.0, 1610.0, 1607.0, 1606.0, 1607.0, 1610.0, 1614.0, 1615.0, 1615.0, 1612.0, 1610.0, 1611.0, 1611.0, 1609.0, 1607.0, 1613.0, 1613.0, 1609.0, 1606.0, 1607.0, 1611.0, 1611.0, 1614.0, 1616.0, 1611.0, 1609.0]
    },
    "slices": {}
  }
}