{
  "AcquisitionMatrixPE": 64,
  "AcquisitionNumber": 1,
  "AcquisitionTime": "14:05:33.112500",
  "BandwidthPerPixelPhaseEncode": 30.637,
  "BaseResolution": 64,
  "BidsGuess": [
    "func",
    "_acq-epfid2_dir-AP_run-3_bold"
],
  "CoilCombinationMethod": "Sum of Squares",
  "CoilString": "C:HEA;HEP",
  "ConversionSoftware": "dcm2niix",
  "ConversionSoftwareVersion": "v1.0.20240202",
  "DerivedVendorReportedEchoSpacing": 0.000510004,
  "DeviceSerialNumber": "35119",
  "DwellTime": 3.5e-06,
  "EchoTime": 0.03,
  "EffectiveEchoSpacing": 0.000510004,
  "FlipAngle": 78,
  "HeudiconvVersion": "1.1.6",
  "ImageComments": "V",
  "ImageOrientationPatientDICOM": [0.999178, 0.025661, 0.03138, 0, 0.774114, -0.633046],
  "ImageOrientationText": "Tra>Cor(-39.3)>Sag(2.3)",
  "ImageType": [
    "ORIGINAL",
    "PRIMARY",
    "M",
    "ND",
    "MOSAIC"
],
  "ImagingFrequency": 123.251782,
  "InPlanePhaseEncodingDirectionDICOM": "COL",
  "InstitutionAddress": "Chaucer Road  15,Cambridge,UK,GB,CB2 2EF",
  "InstitutionName": "MRC-CBU",
  "MRAcquisitionType": "2D",
  "MagneticFieldStrength": 3,
  "Manufacturer": "Siemens",
  "ManufacturersModelName": "TrioTim",
  "MatrixCoilMode": "SENSE",
  "Modality": "MR",
  "NonlinearGradientCorrection": false,
  "PartialFourier": 1,
  "PatientPosition": "HFS",
  "PercentPhaseFOV": 100,
  "PercentSampling": 100,
  "PhaseEncodingDirection": "j-",
  "PhaseEncodingSteps": 64,
  "PhaseResolution": 1,
  "PixelBandwidth": 2230,
  "ProcedureStepDescription": "CBU^Neuroimaging",
  "ProtocolName": "CBU_DWEPI_BOLD210",
  "PulseSequenceDetails": "%SiemensSeq%\\ep2d_bold",
  "ReceiveCoilName": "HeadMatrix",
  "ReconMatrixPE": 64,
  "RepetitionTime": 2,
  "SAR": 0.177458,
  "ScanOptions": "FS",
  "ScanningSequence": "EP",
  "SequenceName": "*epfid2d1_64",
  "SequenceVariant": "SK",
  "SeriesDescription": "CBU_DWEPI_BOLD210",
  "SeriesNumber": 3,
  "ShimSetting": [-7754, -8791, -2016, 580, 113, 67, -86, 23],
  "SliceThickness": 3,
  "SliceTiming": [0, 1.0325, 0.06, 1.095, 0.12, 1.155, 0.1825, 1.215, 0.2425, 1.2775, 0.3025, 1.3375, 0.365, 1.3975, 0.425, 1.46, 0.485, 1.52, 0.5475, 1.58, 0.6075, 1.6425, 0.6675, 1.7025, 0.73, 1.7625, 0.79, 1.825, 0.85, 1.885, 0.9125, 1.945, 0.9725],
  "SoftwareVersions": "syngo MR B15",
  "SpacingBetweenSlices": 3.9,
  "StationName": "MRC35119",
  "TaskName": "faceprocessing",
  "TotalReadoutTime": 0.0321303,
  "TxRefAmp": 353.369,
  "dcmmeta_affine": [
    [-2.9975340366363525, 0.0, 0.15809153020381927, 98.53073120117188],
    [-0.0769829973578453, 2.3223419189453125, -2.4668500423431396, -26.370988845825195],
    [0.09414000064134598, 1.8991379737854004, 3.0165629386901855, -84.90180206298828],
    [0.0, 0.0, 0.0, 1.0]
],
  "dcmmeta_reorient_transform": [
    [0.0, -1.0, 0.0, 63.0],
    [1.0, 0.0, 0.0, 0.0],
    [0.0, 0.0, 1.0, 0.0],
    [0.0, 0.0, 0.0, 1.0]
],
  "dcmmeta_shape": [64, 64, 33, 210],
  "dcmmeta_slice_dim": 2,
  "dcmmeta_version": 0.6,
  "global": {
    "const": {
      "AcquisitionMatrix": [64, 0, 0, 64],
      "AngioFlag": "N",
      "BitsAllocated": 16,
      "BitsStored": 12,
      "Columns": 384,
      "EchoNumbers": 1,
      "EchoTime": 30.0,
      "EchoTrainLength": 1,
      "FlipAngle": 78.0,
      "HighBit": 11,
      "ImageOrientationPatient": [0.999178, 0.025661, 0.03138, -0.0, 0.774114, -0.633046],
      "ImagePositionPatient": [-578.136169, -503.828558, 323.543572],
      "ImageType": [
        "ORIGINAL",
        "PRIMARY",
        "M",
        "ND",
        "MOSAIC"
],
      "ImagedNucleus": "1H",
      "ImagingFrequency": 123.251782,
      "InPlanePhaseEncodingDirection": "COL",
      "MRAcquisitionType": "2D",
      "MagneticFieldStrength": 3.0,
      "Manufacturer": "SIEMENS",
      "ManufacturerModelName": "TrioTim",
      "Modality": "MR",
      "NumberOfAverages": 1.0,
      "NumberOfPhaseEncodingSteps": 64,
      "PercentPhaseFieldOfView": 100.0,
      "PercentSampling": 100.0,
      "PerformedProcedureStepStartTime": "135553.812000",
      "PhotometricInterpretation": "MONOCHROME2",
      "PixelAspectRatio": [1, 1],
      "PixelBandwidth": 2230.0,
      "PixelRepresentation": 0,
      "PixelSpacing": [3.0, 3.0],
      "ProtocolName": "CBU_DWEPI_BOLD210",
      "RepetitionTime": 2000.0,
      "Rows": 384,
      "SAR": 0.177458,
      "SamplesPerPixel": 1,
      "ScanOptions": "FS",
      "ScanningSequence": "EP",
      "SequenceName": "*epfid2d1_64",
      "SequenceVariant": "SK",
      "SeriesDescription": "CBU_DWEPI_BOLD210",
      "SeriesNumber": 3,
      "SeriesTime": "140536.390000",
      "SliceLocation": -44.994972,
      "SliceThickness": 3.0,
      "SmallestImagePixelValue": 0,
      "SoftwareVersions": "syngo MR B15",
      "SpacingBetweenSlices": 3.9,
      "SpecificCharacterSet": "ISO_IR 100",
      "StudyID": "1",
      "StudyTime": "135553.640000",
      "TransmitCoilName": "Body",
      "VariableFlipAngleFlag": "N",
      "WindowCenterWidthExplanation": "Algo1",
      "dBdt": 0.0},
    "slices": {}
  },
  "time": {
    "samples": {
      "AcquisitionNumber": [1, 2, 3, 4, 5, 6, 7, 8, 9, 10, 11, 12, 13, 14, 15, 16, 17, 18, 19, 20, 21, 22, 23, 24, 25, 26, 27, 28, 29, 30, 31, 32, 33, 34, 35, 36, 37, 38, 39, 40, 41, 42, 43, 44, 45, 46, 47, 48, 49, 50, 51, 52, 53, 54, 55, 56, 57, 58, 59, 60, 61, 62, 63, 64, 65, 66, 67, 68, 69, 70, 71, 72, 73, 74, 75, 76, 77, 78, 79, 80, 81, 82, 83, 84, 85, 86, 87, 88, 89, 90, 91, 92, 93, 94, 95, 96, 97, 98, 99, 100, 101, 102, 103, 104, 105, 106, 107, 108, 109, 110, 111, 112, 113, 114, 115, 116, 117, 118, 119, 120, 121, 122, 123, 124, 125, 126, 127, 128, 129, 130, 131, 132, 133, 134, 135, 136, 137, 138, 139, 140, 141, 142, 143, 144, 145, 146, 147, 148, 149, 150, 151, 152, 153, 154, 155, 156, 157, 158, 159, 160, 161, 162, 163, 164, 165, 166, 167, 168, 169, 170, 171, 172, 173, 174, 175, 176, 177, 178, 179, 180, 181, 182, 183, 184, 185, 186, 187, 188, 189, 190, 191, 192, 193, 194, 195, 196, 197, 198, 199, 200, 201, 202, 203, 204, 205, 206, 207, 208, 209, 210],
      "AcquisitionTime": ["140533.112500", "140535.120000", "140537.127500", "140539.135000", "140541.142500", "140543.152500", "140545.160000", "140547.167500", "140549.175000", "140551.182500", "140553.192500", "140555.200000", "140557.207500", "140559.215000", "140601.222500", "140603.232500", "140605.240000", "140607.247500", "140609.255000", "140611.265000", "140613.272500", "140615.280000", "140617.287500", "140619.295000", "140621.305000", "140623.312500", "140625.320000", "140627.327500", "140629.335000", "140631.345000", "140633.352500", "140635.360000", "140637.367500", "140639.377500", "140641.385000", "140643.392500", "140645.400000", "140647.407500", "140649.417500", "140651.425000", "140653.432500", "140655.440000", "140657.447500", "140659.457500", "140701.465000", "140703.472500", "140705.480000", "140707.490000", "140709.497500", "140711.505000", "140713.512500", "140715.520000", "140717.530000", "140719.537500", "140721.545000", "140723.552500", "140725.560000", "140727.570000", "140729.577500", "140731.585000", "140733.592500", "140735.600000", "140737.610000", "140739.617500", "140741.625000", "140743.632500", "140745.642500", "140747.650000", "140749.657500", "140751.665000", "140753.672500", "140755.682500", "140757.690000", "140759.697500", "140801.705000", "140803.712500", "140805.722500", "140807.730000", "140809.737500", "140811.745000", "140813.755000", "140815.762500", "140817.770000", "140819.777500", "140821.785000", "140823.795000", "140825.802500", "140827.810000", "140829.817500", "140831.825000", "140833.835000", "140835.842500", "140837.850000", "140839.857500", "140841.867500", "140843.875000", "140845.882500", "140847.890000", "140849.897500", "140851.907500", "140853.915000", "140855.922500", "140857.930000", "140859.937500", "140901.947500", "140903.955000", "140905.962500", "140907.970000", "140909.977500", "140911.987500", "140913.995000", "140916.002500", "140918.010000", "140920.020000", "140922.027500", "140924.035000", "140926.042500", "140928.050000", "140930.060000", "140932.067500", "140934.075000", "140936.082500", "140938.090000", "140940.100000", "140942.107500", "140944.115000", "140946.122500", "140948.132500", "140950.140000", "140952.147500", "140954.155000", "140956.162500", "140958.172500", "141000.180000", "141002.187500", "141004.195000", "141006.202500", "141008.212500", "141010.220000", "141012.227500", "141014.235000", "141016.245000", "141018.252500", "141020.260000", "141022.267500", "141024.275000", "141026.285000", "141028.292500", "141030.300000", "141032.307500", "141034.315000", "141036.325000", "141038.332500", "141040.340000", "141042.347500", "141044.357500", "141046.365000", "141048.372500", "141050.380000", "141052.387500", "141054.397500", "141056.405000", "141058.412500", "141100.420000", "141102.427500", "141104.437500", "141106.445000", "141108.452500", "141110.460000", "141112.467500", "141114.477500", "141116.485000", "141118.492500", "141120.500000", "141122.510000", "141124.517500", "141126.525000", "141128.532500", "141130.540000", "141132.550000", "141134.557500", "141136.565000", "141138.572500", "141140.580000", "141142.590000", "141144.597500", "141146.605000", "141148.612500", "141150.622500", "141152.630000", "141154.637500", "141156.645000", "141158.652500", "141200.662500", "141202.670000", "141204.677500", "141206.685000", "141208.692500", "141210.702500", "141212.710000", "141214.717500", "141216.725000", "141218.735000", "141220.742500", "141222.750000", "141224.757500", "141226.765000", "141228.775000", "141230.782500", "141232.790000"],
      "ContentTime": ["140536.406000", "140538.375000", "140540.375000", "140542.875000", "140544.375000", "140546.375000", "140548.375000", "140550.875000", "140552.375000", "140554.375000", "140556.375000", "140558.375000", "140600.375000", "140602.375000", "140604.375000", "140606.375000", "140608.375000", "140610.375000", "140612.375000", "140614.375000", "140616.375000", "140618.375000", "140620.375000", "140622.375000", "140624.375000", "140626.375000", "140628.375000", "140630.375000", "140632.375000", "140634.375000", "140636.375000", "140638.375000", "140640.375000", "140642.375000", "140644.375000", "140646.375000", "140648.375000", "140650.375000", "140652.375000", "140654.375000", "140656.375000", "140658.375000", "140700.375000", "140702.375000", "140704.375000", "140706.375000", "140708.375000", "140710.375000", "140712.375000", "140714.375000", "140716.375000", "140718.375000", "140720.375000", "140722.375000", "140724.375000", "140726.875000", "140728.375000", "140730.375000", "140732.375000", "140734.375000", "140736.375000", "140738.375000", "140740.375000", "140742.375000", "140744.375000", "140746.375000", "140748.375000", "140750.375000", "140752.375000", "140754.375000", "140756.375000", "140758.375000", "140800.375000", "140802.375000", "140804.375000", "140806.375000", "140808.375000", "140810.375000", "140812.375000", "140814.375000", "140816.375000", "140818.375000", "140820.375000", "140822.375000", "140824.375000", "140826.375000", "140828.375000", "140830.375000", "140832.875000", "140834.375000", "140836.375000", "140838.375000", "140840.375000", "140842.375000", "140844.375000", "140846.375000", "140848.375000", "140850.375000", "140852.375000", "140854.375000", "140856.375000", "140858.375000", "140900.375000", "140902.375000", "140904.375000", "140906.375000", "140908.375000", "140910.375000", "140912.375000", "140914.375000", "140916.375000", "140918.375000", "140920.375000", "140922.375000", "140924.375000", "140926.375000", "140928.375000", "140930.375000", "140932.375000", "140934.375000", "140936.375000", "140938.375000", "140940.375000", "140942.375000", "140944.375000", "140946.375000", "140948.375000", "140950.375000", "140952.375000", "140954.375000", "140956.375000", "140958.375000", "141000.375000", "141002.375000", "141004.375000", "141006.375000", "141008.375000", "141010.375000", "141012.375000", "141014.375000", "141016.375000", "141018.375000", "141020.375000", "141022.375000", "141024.375000", "141026.375000", "141028.375000", "141030.375000", "141032.375000", "141034.375000", "141036.375000", "141038.375000", "141040.375000", "141042.375000", "141044.375000", "141046.375000", "141048.375000", "141050.375000", "141052.375000", "141054.375000", "141056.375000", "141058.375000", "141100.875000", "141102.375000", "141104.375000", "141106.375000", "141108.375000", "141110.375000", "141112.875000", "141114.375000", "141116.375000", "141118.375000", "141120.375000", "141122.375000", "141124.375000", "141126.375000", "141128.375000", "141130.375000", "141132.375000", "141134.375000", "141136.375000", "141138.375000", "141140.375000", "141142.375000", "141144.375000", "141146.375000", "141148.375000", "141150.375000", "141152.375000", "141154.375000", "141156.375000", "141158.375000", "141200.375000", "141202.375000", "141204.875000", "141206.875000", "141208.375000", "141210.375000", "141212.375000", "141214.375000", "141216.375000", "141218.375000", "141220.375000", "141222.375000", "141224.375000", "141226.375000", "141228.375000", "141230.875000", "141232.375000", "141234.234000"],
      "InstanceCreationTime": ["140536.406000", "140538.375000", "140540.375000", "140542.875000", "140544.375000", "140546.375000", "140548.375000", "140550.875000", "140552.375000", "140554.375000", "140556.375000", "140558.375000", "140600.375000", "140602.375000", "140604.375000", "140606.375000", "140608.375000", "140610.375000", "140612.375000", "140614.375000", "140616.375000", "140618.375000", "140620.375000", "140622.375000", "140624.375000", "140626.375000", "140628.375000", "140630.375000", "140632.375000", "140634.375000", "140636.375000", "140638.375000", "140640.375000", "140642.375000", "140644.375000", "140646.375000", "140648.375000", "140650.375000", "140652.375000", "140654.375000", "140656.375000", "140658.375000", "140700.375000", "140702.375000", "140704.375000", "140706.375000", "140708.375000", "140710.375000", "140712.375000", "140714.375000", "140716.375000", "140718.375000", "140720.375000", "140722.375000", "140724.375000", "140726.875000", "140728.375000", "140730.375000", "140732.375000", "140734.375000", "140736.375000", "140738.375000", "140740.375000", "140742.375000", "140744.375000", "140746.375000", "140748.375000", "140750.375000", "140752.375000", "140754.375000", "140756.375000", "140758.375000", "140800.375000", "140802.375000", "140804.375000", "140806.375000", "140808.375000", "140810.375000", "140812.375000", "140814.375000", "140816.375000", "140818.375000", "140820.375000", "140822.375000", "140824.375000", "140826.375000", "140828.375000", "140830.375000", "140832.875000", "140834.375000", "140836.375000", "140838.375000", "140840.375000", "140842.375000", "140844.375000", "140846.375000", "140848.375000", "140850.375000", "140852.375000", "140854.375000", "140856.375000", "140858.375000", "140900.375000", "140902.375000", "140904.375000", "140906.375000", "140908.375000", "140910.375000", "140912.375000", "140914.375000", "140916.375000", "140918.375000", "140920.375000", "140922.375000", "140924.375000", "140926.375000", "140928.375000", "140930.375000", "140932.375000", "140934.375000", "140936.375000", "140938.375000", "140940.375000", "140942.375000", "140944.375000", "140946.375000", "140948.375000", "140950.375000", "140952.375000", "140954.375000", "140956.375000", "140958.375000", "141000.375000", "141002.375000", "141004.375000", "141006.375000", "141008.375000", "141010.375000", "141012.375000", "141014.375000", "141016.375000", "141018.375000", "141020.375000", "141022.375000", "141024.375000", "141026.375000", "141028.375000", "141030.375000", "141032.375000", "141034.375000", "141036.375000", "141038.375000", "141040.375000", "141042.375000", "141044.375000", "141046.375000", "141048.375000", "141050.375000", "141052.375000", "141054.375000", "141056.375000", "141058.375000", "141100.875000", "141102.375000", "141104.375000", "141106.375000", "141108.375000", "141110.375000", "141112.875000", "141114.375000", "141116.375000", "141118.375000", "141120.375000", "141122.375000", "141124.375000", "141126.375000", "141128.375000", "141130.375000", "141132.375000", "141134.375000", "141136.375000", "141138.375000", "141140.375000", "141142.375000", "141144.375000", "141146.375000", "141148.375000", "141150.375000", "141152.375000", "141154.375000", "141156.375000", "141158.375000", "141200.375000", "141202.375000", "141204.875000", "141206.875000", "141208.375000", "141210.375000", "141212.375000", "141214.375000", "141216.375000", "141218.375000", "141220.375000", "141222.375000", "141224.375000", "141226.375000", "141228.375000", "141230.875000", "141232.375000", "141234.234000"],
      "InstanceNumber": [1, 2, 3, 4, 5, 6, 7, 8, 9, 10, 11, 12, 13, 14, 15, 16, 17, 18, 19, 20, 21, 22, 23, 24, 25, 26, 27, 28, 29, 30, 31, 32, 33, 34, 35, 36, 37, 38, 39, 40, 41, 42, 43, 44, 45, 46, 47, 48, 49, 50, 51, 52, 53, 54, 55, 56, 57, 58, 59, 60, 61, 62, 63, 64, 65, 66, 67, 68, 69, 70, 71, 72, 73, 74, 75, 76, 77, 78, 79, 80, 81, 82, 83, 84, 85, 86, 87, 88, 89, 90, 91, 92, 93, 94, 95, 96, 97, 98, 99, 100, 101, 102, 103, 104, 105, 106, 107, 108, 109, 110, 111, 112, 113, 114, 115, 116, 117, 118, 119, 120, 121, 122, 123, 124, 125, 126, 127, 128, 129, 130, 131, 132, 133, 134, 135, 136, 137, 138, 139, 140, 141, 142, 143, 144, 145, 146, 147, 148, 149, 150, 151, 152, 153, 154, 155, 156, 157, 158, 159, 160, 161, 162, 163, 164, 165, 166, 167, 168, 169, 170, 171, 172, 173, 174, 175, 176, 177, 178, 179, 180, 181, 182, 183, 184, 185, 186, 187, 188, 189, 190, 191, 192, 193, 194, 195, 196, 197, 198, 199, 200, 201, 202, 203, 204, 205, 206, 207, 208, 209, 210],
      "LargestImagePixelValue": [2208, 2128, 2098, 2069, 2086, 2116, 2088, 2109, 2070, 2072, 2066, 2071, 2067, 2073, 2058, 2059, 2086, 2071, 2057, 2083, 2078, 2057, 2038, 2061, 2045, 2053, 2052, 2071, 2073, 2083, 2078, 2072, 2091, 2090, 2084, 2081, 2091, 2058, 2074, 2050, 2085, 2057, 2094, 2073, 2066, 2061, 2074, 2062, 2050, 2033, 2082, 2069, 2066, 2145, 2074, 2068, 2074, 2069, 2069, 2083, 2060, 2058, 2056, 2059, 2057, 2058, 2072, 2079, 2059, 2045, 2046, 2085, 2054, 2073, 2070, 2082, 2096, 2085, 2083, 2078, 2085, 2093, 2089, 2087, 2062, 2071, 2084, 2098, 2076, 2078, 2064, 2076, 2091, 2058, 2071, 2086, 2078, 2076, 2070, 2067, 2067, 2080, 2085, 2088, 2084, 2095, 2090, 2069, 2082, 2075, 2090, 2078, 2088, 2092, 2113, 2076, 2077, 2068, 2094, 2074, 2081, 2072, 2072, 2072, 2099, 2080, 2107, 2078, 2078, 2046, 2059, 2045, 2068, 2077, 2079, 2078, 2054, 2069, 2071, 2074, 2089, 2090, 2046, 2047, 2075, 2053, 2083, 2059, 2064, 2094, 2074, 2067, 2071, 2066, 2061, 2074, 2089, 2088, 2096, 2065, 2077, 2085, 2089, 2079, 2064, 2075, 2069, 2071, 2100, 2068, 2100, 2063, 2076, 2070, 2076, 2213, 2050, 2087, 2082, 2093, 2078, 2064, 2071, 2063, 2083, 2091, 2630, 2084, 2075, 2048, 2088, 2092, 2071, 2041, 2062, 2067, 2056, 2067, 2063, 2090, 2089, 2073, 2081, 2086, 2074, 2072, 2082, 2064, 2066, 2081],
      "WindowCenter": [752.0, 749.0, 748.0, 748.0, 748.0, 749.0, 749.0, 749.0, 749.0, 748.0, 748.0, 748.0, 748.0, 748.0, 748.0, 748.0, 749.0, 749.0, 749.0, 749.0, 748.0, 747.0, 746.0, 746.0, 746.0, 747.0, 748.0, 748.0, 749.0, 749.0, 750.0, 750.0, 750.0, 750.0, 750.0, 750.0, 750.0, 749.0, 749.0, 748.0, 749.0, 749.0, 748.0, 748.0, 748.0, 748.0, 748.0, 748.0, 748.0, 749.0, 750.0, 751.0, 751.0, 750.0, 749.0, 748.0, 749.0, 749.0, 749.0, 749.0, 749.0, 748.0, 748.0, 748.0, 748.0, 748.0, 749.0, 749.0, 749.0, 749.0, 750.0, 750.0, 750.0, 750.0, 749.0, 749.0, 750.0, 750.0, 751.0, 751.0, 751.0, 751.0, 750.0, 749.0, 749.0, 750.0, 751.0, 752.0, 752.0, 751.0, 749.0, 749.0, 749.0, 750.0, 750.0, 751.0, 750.0, 750.0, 749.0, 749.0, 749.0, 749.0, 749.0, 750.0, 751.0, 751.0, 751.0, 750.0, 750.0, 751.0, 752.0, 752.0, 752.0, 752.0, 751.0, 751.0, 750.0, 752.0, 753.0, 752.0, 750.0, 749.0, 749.0, 750.0, 751.0, 753.0, 753.0, 752.0, 751.0, 750.0, 749.0, 748.0, 749.0, 751.0, 752.0, 751.0, 750.0, 751.0, 753.0, 753.0, 752.0, 750.0, 749.0, 749.0, 751.0, 751.0, 752.0, 751.0, 753.0, 754.0, 754.0, 751.0, 750.0, 750.0, 750.0, 751.0, 753.0, 753.0, 751.0, 750.0, 750.0, 751.0, 751.0, 752.0, 752.0, 752.0, 751.0, 750.0, 750.0, 751.0, 754.0, 754.0, 752.0, 751.0, 751.0, 751.0, 751.0, 752.0, 755.0, 756.0, 754.0, 753.0, 752.0, 752.0, 754.0, 754.0, 755.0, 751.0, 750.0, 749.0, 751.0, 753.0, 754.0, 752.0, 751.0, 751.0, 749.0, 748.0, 750.0, 752.0, 752.0, 752.0, 754.0, 756.0, 755.0, 754.0, 753.0, 752.0, 752.0, 753.0],
      "WindowWidth": [1598.0, 1591.0, 1588.0, 1586.0, 1588.0, 1590.0, 1590.0, 1590.0, 1588.0, 1587.0, 1586.0, 1588.0, 1586.0, 1587.0, 1587.0, 1587.0, 1589.0, 1589.0, 1588.0, 1588.0, 1586.0, 1584.0, 1582.0, 1582.0, 1583.0, 1584.0, 1585.0, 1586.0, 1588.0, 1589.0, 1591.0, 1591.0, 1592.0, 1591.0, 1591.0, 1592.0, 1592.0, 1589.0, 1588.0, 1588.0, 1589.0, 1589.0, 1588.0, 1588.0, 1587.0, 1587.0, 1588.0, 1587.0, 1587.0, 1590.0, 1592.0, 1595.0, 1594.0, 1593.0, 1588.0, 1587.0, 1588.0, 1590.0, 1590.0, 1590.0, 1589.0, 1587.0, 1586.0, 1586.0, 1586.0, 1587.0, 1588.0, 1588.0, 1589.0, 1589.0, 1591.0, 1592.0, 1591.0, 1591.0, 1589.0, 1589.0, 1591.0, 1592.0, 1594.0, 1594.0, 1593.0, 1593.0, 1592.0, 1590.0, 1590.0, 1590.0, 1594.0, 1596.0, 1596.0, 1594.0, 1590.0, 1588.0, 1589.0, 1591.0, 1593.0, 1593.0, 1592.0, 1591.0, 1590.0, 1588.0, 1588.0, 1588.0, 1590.0, 1593.0, 1594.0, 1595.0, 1594.0, 1592.0, 1592.0, 1594.0, 1597.0, 1598.0, 1597.0, 1596.0, 1594.0, 1593.0, 1593.0, 1596.0, 1598.0, 1595.0, 1592.0, 1590.0, 1590.0, 1591.0, 1594.0, 1600.0, 1599.0, 1596.0, 1593.0, 1591.0, 1588.0, 1587.0, 1590.0, 1596.0, 1596.0, 1593.0, 1593.0, 1594.0, 1599.0, 1599.0, 1595.0, 1591.0, 1589.0, 1590.0, 1594.0, 1594.0, 1596.0, 1595.0, 1598.0, 1603.0, 1601.0, 1595.0, 1592.0, 1592.0, 1591.0, 1594.0, 1598.0, 1598.0, 1595.0, 1591.0, 1592.0, 1595.0, 1594.0, 1596.0, 1596.0, 1596.0, 1593.0, 1592.0, 1593.0, 1594.0, 1601.0, 1601.0, 1596.0, 1593.0, 1593.0, 1595.0, 1595.0, 1597.0, 1605.0, 1607.0, 1602.0, 1599.0, 1598.0, 1597.0, 1601.0, 1603.0, 1605.0, 1595.0, 1592.0, 1590.0, 1594.0, 1599.0, 1601.0, 1596.0, 1593.0, 1593.0, 1590.0, 1588.0, 1591.0, 1597.0, 1597.0, 1598.0, 1602.0, 1606.0, 1604.0, 1601.0, 1598.0, 1596.0, 1596.0, 1598.0]
    },
    "slices": {}
  }
}