{
  "AcquisitionMatrixPE": 64,
  "AcquisitionNumber": 1,
  "AcquisitionTime": "14:28:16.185000",
  "BandwidthPerPixelPhaseEncode": 30.637,
  "BaseResolution": 64,
  "BidsGuess": [
    "func",
    "_acq-epfid2_dir-AP_run-6_bold"
],
  "CoilCombinationMethod": "Sum of Squares",
  "CoilString": "C:HEA;HEP",
  "ConversionSoftware": "dcm2niix",
  "ConversionSoftwareVersion": "v1.0.20240202",
  "DerivedVendorReportedEchoSpacing": 0.000510004,
  "DeviceSerialNumber": "35119",
  "DwellTime": 3.5e-06,
  "EchoTime": 0.03,
  "EffectiveEchoSpacing": 0.000510004,
  "FlipAngle": 78,
  "HeudiconvVersion": "1.1.6",
  "ImageComments": "V",
  "ImageOrientationPatientDICOM": [0.999178, 0.025661, 0.03138, 0, 0.774114, -0.633046],
  "ImageOrientationText": "Tra>Cor(-39.3)>Sag(2.3)",
  "ImageType": [
    "ORIGINAL",
    "PRIMARY",
    "M",
    "ND",
    "MOSAIC"
],
  "ImagingFrequency": 123.251786,
  "InPlanePhaseEncodingDirectionDICOM": "COL",
  "InstitutionAddress": "Chaucer Road  15,Cambridge,UK,GB,CB2 2EF",
  "InstitutionName": "MRC-CBU",
  "MRAcquisitionType": "2D",
  "MagneticFieldStrength": 3,
  "Manufacturer": "Siemens",
  "ManufacturersModelName": "TrioTim",
  "MatrixCoilMode": "SENSE",
  "Modality": "MR",
  "NonlinearGradientCorrection": false,
  "PartialFourier": 1,
  "PatientPosition": "HFS",
  "PercentPhaseFOV": 100,
  "PercentSampling": 100,
  "PhaseEncodingDirection": "j-",
  "PhaseEncodingSteps": 64,
  "PhaseResolution": 1,
  "PixelBandwidth": 2230,
  "ProcedureStepDescription": "CBU^Neuroimaging",
  "ProtocolName": "CBU_DWEPI_BOLD210",
  "PulseSequenceDetails": "%SiemensSeq%\\ep2d_bold",
  "ReceiveCoilName": "HeadMatrix",
  "ReconMatrixPE": 64,
  "RepetitionTime": 2,
  "SAR": 0.177458,
  "ScanOptions": "FS",
  "ScanningSequence": "EP",
  "SequenceName": "*epfid2d1_64",
  "SequenceVariant": "SK",
  "SeriesDescription": "CBU_DWEPI_BOLD210",
  "SeriesNumber": 6,
  "ShimSetting": [-7754, -8791, -2016, 580, 113, 67, -86, 23],
  "SliceThickness": 3,
  "SliceTiming": [0, 1.035, 0.06, 1.095, 0.1225, 1.155, 0.1825, 1.2175, 0.2425, 1.2775, 0.305, 1.3375, 0.365, 1.4, 0.425, 1.46, 0.4875, 1.52, 0.5475, 1.5825, 0.6075, 1.6425, 0.67, 1.7025, 0.73, 1.765, 0.79, 1.825, 0.8525, 1.885, 0.9125, 1.9475, 0.9725],
  "SoftwareVersions": "syngo MR B15",
  "SpacingBetweenSlices": 3.9,
  "StationName": "MRC35119",
  "TaskName": "faceprocessing",
  "TotalReadoutTime": 0.0321303,
  "TxRefAmp": 353.369,
  "dcmmeta_affine": [
    [-2.9975340366363525, 0.0, 0.15809153020381927, 98.53073120117188],
    [-0.0769829973578453, 2.3223419189453125, -2.4668500423431396, -26.370988845825195],
    [0.09414000064134598, 1.8991379737854004, 3.0165629386901855, -84.90180206298828],
    [0.0, 0.0, 0.0, 1.0]
],
  "dcmmeta_reorient_transform": [
    [0.0, -1.0, 0.0, 63.0],
    [1.0, 0.0, 0.0, 0.0],
    [0.0, 0.0, 1.0, 0.0],
    [0.0, 0.0, 0.0, 1.0]
],
  "dcmmeta_shape": [64, 64, 33, 210],
  "dcmmeta_slice_dim": 2,
  "dcmmeta_version": 0.6,
  "global": {
    "const": {
      "AcquisitionMatrix": [64, 0, 0, 64],
      "AngioFlag": "N",
      "BitsAllocated": 16,
      "BitsStored": 12,
      "Columns": 384,
      "EchoNumbers": 1,
      "EchoTime": 30.0,
      "EchoTrainLength": 1,
      "FlipAngle": 78.0,
      "HighBit": 11,
      "ImageOrientationPatient": [0.999178, 0.025661, 0.03138, -0.0, 0.774114, -0.633046],
      "ImagePositionPatient": [-578.136169, -503.828558, 323.543572],
      "ImageType": [
        "ORIGINAL",
        "PRIMARY",
        "M",
        "ND",
        "MOSAIC"
],
      "ImagedNucleus": "1H",
      "ImagingFrequency": 123.251786,
      "InPlanePhaseEncodingDirection": "COL",
      "MRAcquisitionType": "2D",
      "MagneticFieldStrength": 3.0,
      "Manufacturer": "SIEMENS",
      "ManufacturerModelName": "TrioTim",
      "Modality": "MR",
      "NumberOfAverages": 1.0,
      "NumberOfPhaseEncodingSteps": 64,
      "PercentPhaseFieldOfView": 100.0,
      "PercentSampling": 100.0,
      "PerformedProcedureStepStartTime": "135553.812000",
      "PhotometricInterpretation": "MONOCHROME2",
      "PixelAspectRatio": [1, 1],
      "PixelBandwidth": 2230.0,
      "PixelRepresentation": 0,
      "PixelSpacing": [3.0, 3.0],
      "ProtocolName": "CBU_DWEPI_BOLD210",
      "RepetitionTime": 2000.0,
      "Rows": 384,
      "SAR": 0.177458,
      "SamplesPerPixel": 1,
      "ScanOptions": "FS",
      "ScanningSequence": "EP",
      "SequenceName": "*epfid2d1_64",
      "SequenceVariant": "SK",
      "SeriesDescription": "CBU_DWEPI_BOLD210",
      "SeriesNumber": 6,
      "SeriesTime": "142819.656000",
      "SliceLocation": -44.994972,
      "SliceThickness": 3.0,
      "SmallestImagePixelValue": 0,
      "SoftwareVersions": "syngo MR B15",
      "SpacingBetweenSlices": 3.9,
      "SpecificCharacterSet": "ISO_IR 100",
      "StudyID": "1",
      "StudyTime": "135553.640000",
      "TransmitCoilName": "Body",
      "VariableFlipAngleFlag": "N",
      "WindowCenterWidthExplanation": "Algo1",
      "dBdt": 0.0},
    "slices": {}
  },
  "time": {
    "samples": {
      "AcquisitionNumber": [1, 2, 3, 4, 5, 6, 7, 8, 9, 10, 11, 12, 13, 14, 15, 16, 17, 18, 19, 20, 21, 22, 23, 24, 25, 26, 27, 28, 29, 30, 31, 32, 33, 34, 35, 36, 37, 38, 39, 40, 41, 42, 43, 44, 45, 46, 47, 48, 49, 50, 51, 52, 53, 54, 55, 56, 57, 58, 59, 60, 61, 62, 63, 64, 65, 66, 67, 68, 69, 70, 71, 72, 73, 74, 75, 76, 77, 78, 79, 80, 81, 82, 83, 84, 85, 86, 87, 88, 89, 90, 91, 92, 93, 94, 95, 96, 97, 98, 99, 100, 101, 102, 103, 104, 105, 106, 107, 108, 109, 110, 111, 112, 113, 114, 115, 116, 117, 118, 119, 120, 121, 122, 123, 124, 125, 126, 127, 128, 129, 130, 131, 132, 133, 134, 135, 136, 137, 138, 139, 140, 141, 142, 143, 144, 145, 146, 147, 148, 149, 150, 151, 152, 153, 154, 155, 156, 157, 158, 159, 160, 161, 162, 163, 164, 165, 166, 167, 168, 169, 170, 171, 172, 173, 174, 175, 176, 177, 178, 179, 180, 181, 182, 183, 184, 185, 186, 187, 188, 189, 190, 191, 192, 193, 194, 195, 196, 197, 198, 199, 200, 201, 202, 203, 204, 205, 206, 207, 208, 209, 210],
      "AcquisitionTime": ["142816.185000", "142818.192500", "142820.202500", "142822.210000", "142824.217500", "142826.225000", "142828.232500", "142830.242500", "142832.250000", "142834.257500", "142836.265000", "142838.272500", "142840.282500", "142842.290000", "142844.297500", "142846.305000", "142848.315000", "142850.322500", "142852.330000", "142854.337500", "142856.345000", "142858.355000", "142900.362500", "142902.370000", "142904.377500", "142906.385000", "142908.395000", "142910.402500", "142912.410000", "142914.417500", "142916.425000", "142918.435000", "142920.442500", "142922.450000", "142924.457500", "142926.467500", "142928.475000", "142930.482500", "142932.490000", "142934.497500", "142936.507500", "142938.515000", "142940.522500", "142942.530000", "142944.537500", "142946.547500", "142948.555000", "142950.562500", "142952.570000", "142954.580000", "142956.587500", "142958.595000", "143000.602500", "143002.610000", "143004.620000", "143006.627500", "143008.635000", "143010.642500", "143012.650000", "143014.660000", "143016.667500", "143018.675000", "143020.682500", "143022.692500", "143024.700000", "143026.707500", "143028.715000", "143030.722500", "143032.732500", "143034.740000", "143036.747500", "143038.755000", "143040.762500", "143042.772500", "143044.780000", "143046.787500", "143048.795000", "143050.805000", "143052.812500", "143054.820000", "143056.827500", "143058.835000", "143100.845000", "143102.852500", "143104.860000", "143106.867500", "143108.875000", "143110.885000", "143112.892500", "143114.900000", "143116.907500", "143118.915000", "143120.925000", "143122.932500", "143124.940000", "143126.947500", "143128.957500", "143130.965000", "143132.972500", "143134.980000", "143136.987500", "143138.997500", "143141.005000", "143143.012500", "143145.020000", "143147.027500", "143149.037500", "143151.045000", "143153.052500", "143155.060000", "143157.070000", "143159.077500", "143201.085000", "143203.092500", "143205.100000", "143207.110000", "143209.117500", "143211.125000", "143213.132500", "143215.140000", "143217.150000", "143219.157500", "143221.165000", "143223.172500", "143225.182500", "143227.190000", "143229.197500", "143231.205000", "143233.212500", "143235.222500", "143237.230000", "143239.237500", "143241.245000", "143243.252500", "143245.262500", "143247.270000", "143249.277500", "143251.285000", "143253.292500", "143255.302500", "143257.310000", "143259.317500", "143301.325000", "143303.335000", "143305.342500", "143307.350000", "143309.357500", "143311.365000", "143313.375000", "143315.382500", "143317.390000", "143319.397500", "143321.405000", "143323.415000", "143325.422500", "143327.430000", "143329.437500", "143331.447500", "143333.455000", "143335.462500", "143337.470000", "143339.477500", "143341.487500", "143343.495000", "143345.502500", "143347.510000", "143349.517500", "143351.527500", "143353.535000", "143355.542500", "143357.550000", "143359.560000", "143401.567500", "143403.575000", "143405.582500", "143407.590000", "143409.600000", "143411.607500", "143413.615000", "143415.622500", "143417.630000", "143419.640000", "143421.647500", "143423.655000", "143425.662500", "143427.670000", "143429.680000", "143431.687500", "143433.695000", "143435.702500", "143437.712500", "143439.720000", "143441.727500", "143443.735000", "143445.742500", "143447.752500", "143449.760000", "143451.767500", "143453.775000", "143455.782500", "143457.792500", "143459.800000", "143501.807500", "143503.815000", "143505.825000", "143507.832500", "143509.840000", "143511.847500", "143513.855000", "143515.865000"],
      "ContentTime": ["142819.671000", "142821.640000", "142823.640000", "142825.640000", "142827.640000", "142829.640000", "142831.640000", "142833.640000", "142835.640000", "142837.640000", "142839.640000", "142841.640000", "142843.640000", "142845.640000", "142847.640000", "142849.640000", "142851.640000", "142853.640000", "142855.640000", "142857.640000", "142859.640000", "142901.640000", "142903.640000", "142905.640000", "142907.640000", "142909.640000", "142911.640000", "142913.640000", "142915.640000", "142917.640000", "142919.640000", "142921.640000", "142923.640000", "142925.640000", "142927.640000", "142929.640000", "142931.640000", "142933.640000", "142935.640000", "142937.640000", "142939.640000", "142941.640000", "142943.640000", "142945.640000", "142947.640000", "142949.640000", "142952.140000", "142953.640000", "142955.640000", "142957.640000", "142959.640000", "143001.640000", "143003.640000", "143006.140000", "143007.640000", "143009.640000", "143011.640000", "143013.640000", "143015.640000", "143017.640000", "143019.640000", "143021.640000", "143023.640000", "143025.640000", "143027.640000", "143029.640000", "143031.640000", "143033.640000", "143035.640000", "143037.640000", "143039.640000", "143041.640000", "143043.640000", "143045.640000", "143047.640000", "143049.640000", "143051.640000", "143053.640000", "143056.140000", "143057.640000", "143059.640000", "143101.640000", "143103.640000", "143105.640000", "143107.640000", "143109.640000", "143111.640000", "143113.640000", "143115.640000", "143117.640000", "143119.640000", "143122.140000", "143123.640000", "143126.140000", "143127.640000", "143129.640000", "143131.640000", "143133.640000", "143135.640000", "143137.640000", "143139.640000", "143141.640000", "143143.640000", "143145.640000", "143147.640000", "143149.640000", "143151.640000", "143153.640000", "143155.640000", "143157.640000", "143159.640000", "143201.640000", "143203.640000", "143205.640000", "143207.640000", "143209.640000", "143211.640000", "143213.640000", "143215.640000", "143217.640000", "143219.640000", "143221.640000", "143223.640000", "143225.640000", "143227.640000", "143229.640000", "143231.640000", "143233.640000", "143235.640000", "143237.640000", "143239.640000", "143241.640000", "143243.640000", "143245.640000", "143247.640000", "143249.640000", "143251.640000", "143253.640000", "143255.640000", "143257.640000", "143259.640000", "143301.640000", "143303.640000", "143305.640000", "143307.640000", "143309.640000", "143311.640000", "143313.640000", "143315.640000", "143317.640000", "143319.640000", "143321.640000", "143323.640000", "143325.640000", "143327.640000", "143329.640000", "143331.640000", "143333.640000", "143335.640000", "143337.640000", "143339.640000", "143341.640000", "143344.140000", "143345.640000", "143348.140000", "143349.640000", "143351.640000", "143353.640000", "143355.640000", "143357.640000", "143359.640000", "143401.640000", "143403.640000", "143405.640000", "143407.640000", "143409.640000", "143411.640000", "143413.640000", "143415.640000", "143417.640000", "143419.640000", "143421.640000", "143424.140000", "143425.640000", "143427.640000", "143429.640000", "143431.640000", "143433.640000", "143435.640000", "143437.640000", "143439.640000", "143441.640000", "143443.640000", "143446.140000", "143447.640000", "143449.640000", "143451.640000", "143453.640000", "143455.640000", "143457.640000", "143459.640000", "143501.640000", "143503.640000", "143505.640000", "143507.640000", "143509.640000", "143511.640000", "143513.640000", "143515.640000", "143517.531000"],
      "InstanceCreationTime": ["142819.671000", "142821.640000", "142823.640000", "142825.640000", "142827.640000", "142829.640000", "142831.640000", "142833.640000", "142835.640000", "142837.640000", "142839.640000", "142841.640000", "142843.640000", "142845.640000", "142847.640000", "142849.640000", "142851.640000", "142853.640000", "142855.640000", "142857.640000", "142859.640000", "142901.640000", "142903.640000", "142905.640000", "142907.640000", "142909.640000", "142911.640000", "142913.640000", "142915.640000", "142917.640000", "142919.640000", "142921.640000", "142923.640000", "142925.640000", "142927.640000", "142929.640000", "142931.640000", "142933.640000", "142935.640000", "142937.640000", "142939.640000", "142941.640000", "142943.640000", "142945.640000", "142947.640000", "142949.640000", "142952.140000", "142953.640000", "142955.640000", "142957.640000", "142959.640000", "143001.640000", "143003.640000", "143006.140000", "143007.640000", "143009.640000", "143011.640000", "143013.640000", "143015.640000", "143017.640000", "143019.640000", "143021.640000", "143023.640000", "143025.640000", "143027.640000", "143029.640000", "143031.640000", "143033.640000", "143035.640000", "143037.640000", "143039.640000", "143041.640000", "143043.640000", "143045.640000", "143047.640000", "143049.640000", "143051.640000", "143053.640000", "143056.140000", "143057.640000", "143059.640000", "143101.640000", "143103.640000", "143105.640000", "143107.640000", "143109.640000", "143111.640000", "143113.640000", "143115.640000", "143117.640000", "143119.640000", "143122.140000", "143123.640000", "143126.140000", "143127.640000", "143129.640000", "143131.640000", "143133.640000", "143135.640000", "143137.640000", "143139.640000", "143141.640000", "143143.640000", "143145.640000", "143147.640000", "143149.640000", "143151.640000", "143153.640000", "143155.640000", "143157.640000", "143159.640000", "143201.640000", "143203.640000", "143205.640000", "143207.640000", "143209.640000", "143211.640000", "143213.640000", "143215.640000", "143217.640000", "143219.640000", "143221.640000", "143223.640000", "143225.640000", "143227.640000", "143229.640000", "143231.640000", "143233.640000", "143235.640000", "143237.640000", "143239.640000", "143241.640000", "143243.640000", "143245.640000", "143247.640000", "143249.640000", "143251.640000", "143253.640000", "143255.640000", "143257.640000", "143259.640000", "143301.640000", "143303.640000", "143305.640000", "143307.640000", "143309.640000", "143311.640000", "143313.640000", "143315.640000", "143317.640000", "143319.640000", "143321.640000", "143323.640000", "143325.640000", "143327.640000", "143329.640000", "143331.640000", "143333.640000", "143335.640000", "143337.640000", "143339.640000", "143341.640000", "143344.140000", "143345.640000", "143348.140000", "143349.640000", "143351.640000", "143353.640000", "143355.640000", "143357.640000", "143359.640000", "143401.640000", "143403.640000", "143405.640000", "143407.640000", "143409.640000", "143411.640000", "143413.640000", "143415.640000", "143417.640000", "143419.640000", "143421.640000", "143424.140000", "143425.640000", "143427.640000", "143429.640000", "143431.640000", "143433.640000", "143435.640000", "143437.640000", "143439.640000", "143441.640000", "143443.640000", "143446.140000", "143447.640000", "143449.640000", "143451.640000", "143453.640000", "143455.640000", "143457.640000", "143459.640000", "143501.640000", "143503.640000", "143505.640000", "143507.640000", "143509.640000", "143511.640000", "143513.640000", "143515.640000", "143517.531000"],
      "InstanceNumber": [1, 2, 3, 4, 5, 6, 7, 8, 9, 10, 11, 12, 13, 14, 15, 16, 17, 18, 19, 20, 21, 22, 23, 24, 25, 26, 27, 28, 29, 30, 31, 32, 33, 34, 35, 36, 37, 38, 39, 40, 41, 42, 43, 44, 45, 46, 47, 48, 49, 50, 51, 52, 53, 54, 55, 56, 57, 58, 59, 60, 61, 62, 63, 64, 65, 66, 67, 68, 69, 70, 71, 72, 73, 74, 75, 76, 77, 78, 79, 80, 81, 82, 83, 84, 85, 86, 87, 88, 89, 90, 91, 92, 93, 94, 95, 96, 97, 98, 99, 100, 101, 102, 103, 104, 105, 106, 107, 108, 109, 110, 111, 112, 113, 114, 115, 116, 117, 118, 119, 120, 121, 122, 123, 124, 125, 126, 127, 128, 129, 130, 131, 132, 133, 134, 135, 136, 137, 138, 139, 140, 141, 142, 143, 144, 145, 146, 147, 148, 149, 150, 151, 152, 153, 154, 155, 156, 157, 158, 159, 160, 161, 162, 163, 164, 165, 166, 167, 168, 169, 170, 171, 172, 173, 174, 175, 176, 177, 178, 179, 180, 181, 182, 183, 184, 185, 186, 187, 188, 189, 190, 191, 192, 193, 194, 195, 196, 197, 198, 199, 200, 201, 202, 203, 204, 205, 206, 207, 208, 209, 210],
      "LargestImagePixelValue": [2256, 2190, 2178, 2128, 2148, 2126, 2135, 2145, 2153, 2134, 2142, 2138, 2141, 2126, 2145, 2141, 2135, 2149, 2157, 2139, 2139, 2136, 2156, 2123, 2133, 2132, 2123, 2115, 2114, 2101, 2120, 2137, 2126, 2127, 2121, 2162, 2135, 2151, 2131, 2148, 2154, 2149, 2141, 2125, 2145, 2129, 2153, 2142, 2137, 2150, 2131, 2164, 2138, 2142, 2130, 2164, 2138, 2132, 2130, 2120, 2123, 2114, 2121, 2131, 2115, 2147, 2133, 2140, 2099, 2139, 2153, 2149, 2147, 2274, 2129, 2434, 2138, 2146, 2142, 2165, 2184, 2162, 2163, 2143, 2271, 2135, 2157, 2151, 2153, 2168, 2186, 2165, 2144, 2131, 2137, 2149, 2120, 2125, 2134, 2125, 2122, 2148, 2150, 2149, 2128, 2162, 2211, 2200, 2183, 2169, 2155, 2264, 2130, 2152, 2156, 2132, 2138, 2146, 2160, 2157, 2141, 2149, 2141, 2145, 2137, 2150, 2146, 2143, 2146, 2116, 2171, 2168, 2168, 2166, 2166, 2159, 2157, 2160, 2142, 2125, 2131, 2149, 2153, 2152, 2132, 2141, 2164, 2152, 2146, 2116, 2144, 2135, 2148, 2149, 2144, 2144, 2101, 2117, 2153, 2135, 2134, 2211, 2218, 2219, 2135, 2092, 2128, 2119, 2144, 2144, 2147, 2151, 2149, 2150, 2156, 2160, 2170, 2159, 2156, 2162, 2162, 2159, 2146, 2145, 2165, 2180, 2167, 2160, 2164, 2151, 2152, 2179, 2143, 2141, 2150, 2134, 2167, 2181, 2133, 2179, 2170, 2181, 2135, 2173, 2130, 2131, 2107, 2128, 2109, 2109],
      "WindowCenter": [759.0, 756.0, 755.0, 756.0, 756.0, 756.0, 757.0, 757.0, 758.0, 758.0, 758.0, 758.0, 758.0, 758.0, 758.0, 758.0, 758.0, 758.0, 758.0, 757.0, 757.0, 756.0, 756.0, 756.0, 757.0, 756.0, 755.0, 754.0, 754.0, 757.0, 759.0, 760.0, 759.0, 757.0, 756.0, 755.0, 755.0, 756.0, 756.0, 756.0, 755.0, 754.0, 754.0, 754.0, 754.0, 755.0, 756.0, 757.0, 758.0, 758.0, 758.0, 758.0, 757.0, 757.0, 758.0, 759.0, 759.0, 758.0, 757.0, 757.0, 756.0, 755.0, 755.0, 755.0, 755.0, 755.0, 756.0, 757.0, 758.0, 760.0, 759.0, 757.0, 756.0, 756.0, 754.0, 754.0, 752.0, 753.0, 753.0, 755.0, 757.0, 759.0, 759.0, 758.0, 757.0, 755.0, 756.0, 757.0, 758.0, 759.0, 759.0, 758.0, 757.0, 756.0, 755.0, 754.0, 754.0, 753.0, 754.0, 754.0, 754.0, 755.0, 757.0, 757.0, 757.0, 758.0, 762.0, 761.0, 762.0, 760.0, 758.0, 756.0, 755.0, 755.0, 756.0, 756.0, 756.0, 756.0, 756.0, 757.0, 759.0, 758.0, 757.0, 757.0, 757.0, 757.0, 758.0, 759.0, 758.0, 758.0, 758.0, 758.0, 759.0, 758.0, 758.0, 758.0, 758.0, 758.0, 758.0, 758.0, 757.0, 756.0, 757.0, 759.0, 759.0, 758.0, 758.0, 758.0, 758.0, 757.0, 757.0, 754.0, 753.0, 754.0, 754.0, 754.0, 754.0, 756.0, 757.0, 758.0, 756.0, 754.0, 752.0, 750.0, 750.0, 750.0, 752.0, 754.0, 756.0, 758.0, 757.0, 757.0, 757.0, 757.0, 758.0, 759.0, 759.0, 758.0, 758.0, 758.0, 759.0, 760.0, 760.0, 759.0, 758.0, 757.0, 758.0, 758.0, 760.0, 759.0, 758.0, 758.0, 757.0, 757.0, 757.0, 757.0, 758.0, 759.0, 759.0, 760.0, 760.0, 759.0, 758.0, 758.0, 760.0, 757.0, 756.0, 755.0, 754.0, 754.0],
      "WindowWidth": [1616.0, 1607.0, 1606.0, 1606.0, 1608.0, 1607.0, 1608.0, 1609.0, 1611.0, 1611.0, 1612.0, 1612.0, 1613.0, 1611.0, 1612.0, 1611.0, 1613.0, 1612.0, 1612.0, 1611.0, 1609.0, 1607.0, 1607.0, 1608.0, 1609.0, 1607.0, 1604.0, 1603.0, 1603.0, 1609.0, 1614.0, 1619.0, 1615.0, 1610.0, 1607.0, 1605.0, 1605.0, 1607.0, 1607.0, 1605.0, 1603.0, 1602.0, 1602.0, 1603.0, 1603.0, 1603.0, 1606.0, 1609.0, 1612.0, 1613.0, 1612.0, 1612.0, 1610.0, 1610.0, 1612.0, 1615.0, 1614.0, 1611.0, 1610.0, 1608.0, 1606.0, 1604.0, 1603.0, 1604.0, 1604.0, 1605.0, 1607.0, 1610.0, 1613.0, 1616.0, 1614.0, 1611.0, 1608.0, 1606.0, 1602.0, 1603.0, 1598.0, 1598.0, 1599.0, 1604.0, 1610.0, 1617.0, 1615.0, 1612.0, 1609.0, 1605.0, 1606.0, 1609.0, 1612.0, 1615.0, 1613.0, 1610.0, 1611.0, 1607.0, 1604.0, 1602.0, 1601.0, 1600.0, 1602.0, 1603.0, 1602.0, 1605.0, 1608.0, 1610.0, 1609.0, 1611.0, 1626.0, 1621.0, 1623.0, 1617.0, 1611.0, 1607.0, 1604.0, 1605.0, 1606.0, 1606.0, 1605.0, 1605.0, 1606.0, 1610.0, 1613.0, 1612.0, 1610.0, 1608.0, 1608.0, 1610.0, 1611.0, 1614.0, 1613.0, 1612.0, 1611.0, 1613.0, 1615.0, 1613.0, 1612.0, 1611.0, 1612.0, 1611.0, 1612.0, 1611.0, 1608.0, 1608.0, 1611.0, 1615.0, 1613.0, 1611.0, 1611.0, 1612.0, 1612.0, 1610.0, 1608.0, 1602.0, 1600.0, 1601.0, 1601.0, 1603.0, 1602.0, 1607.0, 1609.0, 1611.0, 1605.0, 1601.0, 1596.0, 1593.0, 1591.0, 1593.0, 1597.0, 1602.0, 1608.0, 1612.0, 1610.0, 1609.0, 1609.0, 1610.0, 1611.0, 1614.0, 1615.0, 1612.0, 1612.0, 1612.0, 1614.0, 1617.0, 1617.0, 1614.0, 1612.0, 1610.0, 1611.0, 1613.0, 1617.0, 1614.0, 1611.0, 1611.0, 1610.0, 1609.0, 1609.0, 1611.0, 1613.0, 1615.0, 1614.0, 1617.0, 1617.0, 1614.0, 1612.0, 1611.0, 1617.0, 1610.0, 1608.0, 1605.0, 1602.0, 1602.0]
    },
    "slices": {}
  }
}