{
  "AcquisitionMatrixPE": 64,
  "AcquisitionNumber": 1,
  "AcquisitionTime": "18:27:37.982500",
  "BandwidthPerPixelPhaseEncode": 30.637,
  "BaseResolution": 64,
  "BidsGuess": [
    "func",
    "_acq-epfid2_dir-AP_run-11_bold"
],
  "CoilCombinationMethod": "Sum of Squares",
  "CoilString": "C:HEA;HEP",
  "ConversionSoftware": "dcm2niix",
  "ConversionSoftwareVersion": "v1.0.20240202",
  "DerivedVendorReportedEchoSpacing": 0.000510004,
  "DeviceSerialNumber": "35119",
  "DwellTime": 3.5e-06,
  "EchoTime": 0.03,
  "EffectiveEchoSpacing": 0.000510004,
  "FlipAngle": 78,
  "HeudiconvVersion": "1.1.6",
  "ImageComments": "V",
  "ImageOrientationPatientDICOM": [0.99996, -0.003279, -0.00833, 0, 0.930492, -0.366312],
  "ImageOrientationText": "Tra>Cor(-21.5)>Sag(-0.5)",
  "ImageType": [
    "ORIGINAL",
    "PRIMARY",
    "M",
    "ND",
    "MOSAIC"
],
  "ImagingFrequency": 123.252122,
  "InPlanePhaseEncodingDirectionDICOM": "COL",
  "InstitutionAddress": "Chaucer Road  15,Cambridge,UK,GB,CB2 2EF",
  "InstitutionName": "MRC-CBU",
  "MRAcquisitionType": "2D",
  "MagneticFieldStrength": 3,
  "Manufacturer": "Siemens",
  "ManufacturersModelName": "TrioTim",
  "MatrixCoilMode": "SENSE",
  "Modality": "MR",
  "NonlinearGradientCorrection": false,
  "PartialFourier": 1,
  "PatientPosition": "HFS",
  "PercentPhaseFOV": 100,
  "PercentSampling": 100,
  "PhaseEncodingDirection": "j-",
  "PhaseEncodingSteps": 64,
  "PhaseResolution": 1,
  "PixelBandwidth": 2230,
  "ProcedureStepDescription": "CBU^Neuroimaging",
  "ProtocolName": "CBU_DWEPI_BOLD210",
  "PulseSequenceDetails": "%SiemensSeq%\\ep2d_bold",
  "ReceiveCoilName": "HeadMatrix",
  "ReconMatrixPE": 64,
  "RepetitionTime": 2,
  "SAR": 0.129421,
  "ScanOptions": "FS",
  "ScanningSequence": "EP",
  "SequenceName": "*epfid2d1_64",
  "SequenceVariant": "SK",
  "SeriesDescription": "CBU_DWEPI_BOLD210",
  "SeriesNumber": 11,
  "ShimSetting": [-7843, -8613, -2376, 955, -84, 747, -346, -26],
  "SliceThickness": 3,
  "SliceTiming": [0, 1.035, 0.0625, 1.095, 0.1225, 1.1575, 0.1825, 1.2175, 0.245, 1.2775, 0.305, 1.34, 0.365, 1.4, 0.4275, 1.46, 0.4875, 1.5225, 0.5475, 1.5825, 0.61, 1.6425, 0.67, 1.705, 0.73, 1.765, 0.7925, 1.825, 0.8525, 1.8875, 0.9125, 1.9475, 0.975],
  "SoftwareVersions": "syngo MR B15",
  "SpacingBetweenSlices": 3.75,
  "StationName": "MRC35119",
  "TaskName": "faceprocessing",
  "TotalReadoutTime": 0.0321303,
  "TxRefAmp": 312.996,
  "dcmmeta_affine": [
    [-2.999880075454712, 0.0, -0.033570509403944016, 95.8031234741211],
    [0.009836999699473381, 2.791476011276245, -1.373615026473999, -61.71598815917969],
    [-0.02498999983072281, 1.0989359617233276, 3.4892053604125977, -76.11380767822266],
    [0.0, 0.0, 0.0, 1.0]
],
  "dcmmeta_reorient_transform": [
    [0.0, -1.0, 0.0, 63.0],
    [1.0, 0.0, 0.0, 0.0],
    [0.0, 0.0, 1.0, 0.0],
    [0.0, 0.0, 0.0, 1.0]
],
  "dcmmeta_shape": [64, 64, 33, 210],
  "dcmmeta_slice_dim": 2,
  "dcmmeta_version": 0.6,
  "global": {
    "const": {
      "AcquisitionMatrix": [64, 0, 0, 64],
      "AngioFlag": "N",
      "BitsAllocated": 16,
      "BitsStored": 12,
      "Columns": 384,
      "EchoNumbers": 1,
      "EchoTime": 30.0,
      "EchoTrainLength": 1,
      "FlipAngle": 78.0,
      "HighBit": 11,
      "ImageOrientationPatient": [0.99996, -0.003279, -0.00833, 0.0, 0.930492, -0.366312],
      "ImagePositionPatient": [-575.783927, -559.209239, 172.947324],
      "ImageType": [
        "ORIGINAL",
        "PRIMARY",
        "M",
        "ND",
        "MOSAIC"
],
      "ImagedNucleus": "1H",
      "ImagingFrequency": 123.252122,
      "InPlanePhaseEncodingDirection": "COL",
      "MRAcquisitionType": "2D",
      "MagneticFieldStrength": 3.0,
      "Manufacturer": "SIEMENS",
      "ManufacturerModelName": "TrioTim",
      "Modality": "MR",
      "NumberOfAverages": 1.0,
      "NumberOfPhaseEncodingSteps": 64,
      "PercentPhaseFieldOfView": 100.0,
      "PercentSampling": 100.0,
      "PerformedProcedureStepStartTime": "171511.593000",
      "PhotometricInterpretation": "MONOCHROME2",
      "PixelAspectRatio": [1, 1],
      "PixelBandwidth": 2230.0,
      "PixelRepresentation": 0,
      "PixelSpacing": [3.0, 3.0],
      "ProtocolName": "CBU_DWEPI_BOLD210",
      "RepetitionTime": 2000.0,
      "Rows": 384,
      "SAR": 0.129421,
      "SamplesPerPixel": 1,
      "ScanOptions": "FS",
      "ScanningSequence": "EP",
      "SequenceName": "*epfid2d1_64",
      "SequenceVariant": "SK",
      "SeriesDescription": "CBU_DWEPI_BOLD210",
      "SeriesNumber": 11,
      "SeriesTime": "182741.593000",
      "SliceLocation": -49.071566,
      "SliceThickness": 3.0,
      "SmallestImagePixelValue": 0,
      "SoftwareVersions": "syngo MR B15",
      "SpacingBetweenSlices": 3.75,
      "SpecificCharacterSet": "ISO_IR 100",
      "StudyID": "1",
      "StudyTime": "171511.437000",
      "TransmitCoilName": "Body",
      "VariableFlipAngleFlag": "N",
      "WindowCenterWidthExplanation": "Algo1",
      "dBdt": 0.0},
    "slices": {}
  },
  "time": {
    "samples": {
      "AcquisitionNumber": [1, 2, 3, 4, 5, 6, 7, 8, 9, 10, 11, 12, 13, 14, 15, 16, 17, 18, 19, 20, 21, 22, 23, 24, 25, 26, 27, 28, 29, 30, 31, 32, 33, 34, 35, 36, 37, 38, 39, 40, 41, 42, 43, 44, 45, 46, 47, 48, 49, 50, 51, 52, 53, 54, 55, 56, 57, 58, 59, 60, 61, 62, 63, 64, 65, 66, 67, 68, 69, 70, 71, 72, 73, 74, 75, 76, 77, 78, 79, 80, 81, 82, 83, 84, 85, 86, 87, 88, 89, 90, 91, 92, 93, 94, 95, 96, 97, 98, 99, 100, 101, 102, 103, 104, 105, 106, 107, 108, 109, 110, 111, 112, 113, 114, 115, 116, 117, 118, 119, 120, 121, 122, 123, 124, 125, 126, 127, 128, 129, 130, 131, 132, 133, 134, 135, 136, 137, 138, 139, 140, 141, 142, 143, 144, 145, 146, 147, 148, 149, 150, 151, 152, 153, 154, 155, 156, 157, 158, 159, 160, 161, 162, 163, 164, 165, 166, 167, 168, 169, 170, 171, 172, 173, 174, 175, 176, 177, 178, 179, 180, 181, 182, 183, 184, 185, 186, 187, 188, 189, 190, 191, 192, 193, 194, 195, 196, 197, 198, 199, 200, 201, 202, 203, 204, 205, 206, 207, 208, 209, 210],
      "AcquisitionTime": ["182737.982500", "182739.992500", "182742.000000", "182744.007500", "182746.015000", "182748.022500", "182750.032500", "182752.040000", "182754.047500", "182756.055000", "182758.065000", "182800.072500", "182802.080000", "182804.087500", "182806.095000", "182808.105000", "182810.112500", "182812.120000", "182814.127500", "182816.135000", "182818.145000", "182820.152500", "182822.160000", "182824.167500", "182826.175000", "182828.185000", "182830.192500", "182832.200000", "182834.207500", "182836.217500", "182838.225000", "182840.232500", "182842.240000", "182844.247500", "182846.257500", "182848.265000", "182850.272500", "182852.280000", "182854.287500", "182856.297500", "182858.305000", "182900.312500", "182902.320000", "182904.330000", "182906.337500", "182908.345000", "182910.352500", "182912.360000", "182914.370000", "182916.377500", "182918.385000", "182920.392500", "182922.400000", "182924.410000", "182926.417500", "182928.425000", "182930.432500", "182932.442500", "182934.450000", "182936.457500", "182938.465000", "182940.472500", "182942.482500", "182944.490000", "182946.497500", "182948.505000", "182950.512500", "182952.522500", "182954.530000", "182956.537500", "182958.545000", "183000.552500", "183002.562500", "183004.570000", "183006.577500", "183008.585000", "183010.595000", "183012.602500", "183014.610000", "183016.617500", "183018.625000", "183020.635000", "183022.642500", "183024.650000", "183026.657500", "183028.665000", "183030.675000", "183032.682500", "183034.690000", "183036.697500", "183038.707500", "183040.715000", "183042.722500", "183044.730000", "183046.737500", "183048.747500", "183050.755000", "183052.762500", "183054.770000", "183056.777500", "183058.787500", "183100.795000", "183102.802500", "183104.810000", "183106.820000", "183108.827500", "183110.835000", "183112.842500", "183114.850000", "183116.860000", "183118.867500", "183120.875000", "183122.882500", "183124.890000", "183126.900000", "183128.907500", "183130.915000", "183132.922500", "183134.932500", "183136.940000", "183138.947500", "183140.955000", "183142.962500", "183144.972500", "183146.980000", "183148.987500", "183150.995000", "183153.002500", "183155.012500", "183157.020000", "183159.027500", "183201.035000", "183203.042500", "183205.052500", "183207.060000", "183209.067500", "183211.075000", "183213.085000", "183215.092500", "183217.100000", "183219.107500", "183221.115000", "183223.125000", "183225.132500", "183227.140000", "183229.147500", "183231.155000", "183233.165000", "183235.172500", "183237.180000", "183239.187500", "183241.197500", "183243.205000", "183245.212500", "183247.220000", "183249.227500", "183251.237500", "183253.245000", "183255.252500", "183257.260000", "183259.267500", "183301.277500", "183303.285000", "183305.292500", "183307.300000", "183309.310000", "183311.317500", "183313.325000", "183315.332500", "183317.340000", "183319.350000", "183321.357500", "183323.365000", "183325.372500", "183327.380000", "183329.390000", "183331.397500", "183333.405000", "183335.412500", "183337.420000", "183339.430000", "183341.437500", "183343.445000", "183345.452500", "183347.462500", "183349.470000", "183351.477500", "183353.485000", "183355.492500", "183357.502500", "183359.510000", "183401.517500", "183403.525000", "183405.532500", "183407.542500", "183409.550000", "183411.557500", "183413.565000", "183415.575000", "183417.582500", "183419.590000", "183421.597500", "183423.605000", "183425.615000", "183427.622500", "183429.630000", "183431.637500", "183433.645000", "183435.655000", "183437.662500"],
      "ContentTime": ["182741.593000", "182743.578000", "182745.578000", "182747.578000", "182749.578000", "182751.578000", "182753.578000", "182755.578000", "182757.578000", "182759.578000", "182801.578000", "182803.578000", "182805.578000", "182807.578000", "182809.578000", "182811.578000", "182813.593000", "182815.578000", "182817.578000", "182819.578000", "182821.578000", "182823.593000", "182825.578000", "182827.578000", "182829.578000", "182831.578000", "182833.578000", "182835.578000", "182837.578000", "182839.578000", "182841.578000", "182843.578000", "182845.578000", "182847.578000", "182849.578000", "182851.578000", "182853.578000", "182855.578000", "182857.578000", "182859.578000", "182901.578000", "182903.578000", "182905.578000", "182907.578000", "182909.578000", "182911.578000", "182913.578000", "182915.578000", "182917.578000", "182919.578000", "182921.578000", "182923.578000", "182925.578000", "182927.578000", "182929.578000", "182931.578000", "182933.578000", "182935.578000", "182937.578000", "182939.578000", "182941.578000", "182943.578000", "182945.578000", "182947.578000", "182949.578000", "182951.578000", "182953.578000", "182955.578000", "182957.578000", "182959.578000", "183001.578000", "183003.578000", "183005.578000", "183007.578000", "183009.578000", "183011.578000", "183013.578000", "183015.578000", "183017.578000", "183019.578000", "183021.578000", "183023.578000", "183025.578000", "183027.578000", "183029.578000", "183031.578000", "183033.578000", "183035.578000", "183037.578000", "183039.578000", "183041.578000", "183043.578000", "183045.578000", "183047.578000", "183049.578000", "183051.578000", "183053.578000", "183055.593000", "183057.578000", "183059.578000", "183101.578000", "183103.578000", "183105.578000", "183107.578000", "183109.578000", "183111.578000", "183113.578000", "183115.578000", "183117.578000", "183119.593000", "183121.578000", "183123.578000", "183125.578000", "183127.578000", "183129.578000", "183131.578000", "183133.578000", "183135.578000", "183137.578000", "183139.578000", "183141.578000", "183143.578000", "183145.578000", "183147.578000", "183149.578000", "183151.578000", "183153.578000", "183155.578000", "183157.578000", "183159.578000", "183201.578000", "183203.578000", "183205.578000", "183207.578000", "183209.578000", "183211.578000", "183213.578000", "183215.578000", "183217.578000", "183219.578000", "183221.578000", "183223.578000", "183225.578000", "183227.578000", "183229.578000", "183231.578000", "183233.578000", "183235.578000", "183237.578000", "183239.578000", "183241.578000", "183243.578000", "183245.578000", "183247.578000", "183249.578000", "183251.578000", "183253.578000", "183255.578000", "183257.578000", "183259.578000", "183301.578000", "183303.578000", "183305.578000", "183307.578000", "183309.578000", "183311.578000", "183313.578000", "183315.578000", "183317.578000", "183319.578000", "183321.578000", "183323.578000", "183325.578000", "183327.578000", "183329.578000", "183331.578000", "183333.578000", "183335.578000", "183337.578000", "183339.593000", "183341.578000", "183343.578000", "183345.578000", "183347.578000", "183349.593000", "183351.578000", "183353.578000", "183355.578000", "183357.578000", "183359.578000", "183401.578000", "183403.578000", "183405.578000", "183407.578000", "183409.593000", "183411.578000", "183413.578000", "183415.578000", "183417.578000", "183419.578000", "183421.578000", "183423.578000", "183425.578000", "183427.578000", "183429.578000", "183431.578000", "183433.578000", "183435.578000", "183437.578000", "183439.515000"],
      "InstanceCreationTime": ["182741.593000", "182743.578000", "182745.578000", "182747.578000", "182749.578000", "182751.578000", "182753.578000", "182755.578000", "182757.578000", "182759.578000", "182801.578000", "182803.578000", "182805.578000", "182807.578000", "182809.578000", "182811.578000", "182813.593000", "182815.578000", "182817.578000", "182819.578000", "182821.578000", "182823.593000", "182825.578000", "182827.578000", "182829.578000", "182831.578000", "182833.578000", "182835.578000", "182837.578000", "182839.578000", "182841.578000", "182843.578000", "182845.578000", "182847.578000", "182849.578000", "182851.578000", "182853.578000", "182855.578000", "182857.578000", "182859.578000", "182901.578000", "182903.578000", "182905.578000", "182907.578000", "182909.578000", "182911.578000", "182913.578000", "182915.578000", "182917.578000", "182919.578000", "182921.578000", "182923.578000", "182925.578000", "182927.578000", "182929.578000", "182931.578000", "182933.578000", "182935.578000", "182937.578000", "182939.578000", "182941.578000", "182943.578000", "182945.578000", "182947.578000", "182949.578000", "182951.578000", "182953.578000", "182955.578000", "182957.578000", "182959.578000", "183001.578000", "183003.578000", "183005.578000", "183007.578000", "183009.578000", "183011.578000", "183013.578000", "183015.578000", "183017.578000", "183019.578000", "183021.578000", "183023.578000", "183025.578000", "183027.578000", "183029.578000", "183031.578000", "183033.578000", "183035.578000", "183037.578000", "183039.578000", "183041.578000", "183043.578000", "183045.578000", "183047.578000", "183049.578000", "183051.578000", "183053.578000", "183055.593000", "183057.578000", "183059.578000", "183101.578000", "183103.578000", "183105.578000", "183107.578000", "183109.578000", "183111.578000", "183113.578000", "183115.578000", "183117.578000", "183119.593000", "183121.578000", "183123.578000", "183125.578000", "183127.578000", "183129.578000", "183131.578000", "183133.578000", "183135.578000", "183137.578000", "183139.578000", "183141.578000", "183143.578000", "183145.578000", "183147.578000", "183149.578000", "183151.578000", "183153.578000", "183155.578000", "183157.578000", "183159.578000", "183201.578000", "183203.578000", "183205.578000", "183207.578000", "183209.578000", "183211.578000", "183213.578000", "183215.578000", "183217.578000", "183219.578000", "183221.578000", "183223.578000", "183225.578000", "183227.578000", "183229.578000", "183231.578000", "183233.578000", "183235.578000", "183237.578000", "183239.578000", "183241.578000", "183243.578000", "183245.578000", "183247.578000", "183249.578000", "183251.578000", "183253.578000", "183255.578000", "183257.578000", "183259.578000", "183301.578000", "183303.578000", "183305.578000", "183307.578000", "183309.578000", "183311.578000", "183313.578000", "183315.578000", "183317.578000", "183319.578000", "183321.578000", "183323.578000", "183325.578000", "183327.578000", "183329.578000", "183331.578000", "183333.578000", "183335.578000", "183337.578000", "183339.593000", "183341.578000", "183343.578000", "183345.578000", "183347.578000", "183349.593000", "183351.578000", "183353.578000", "183355.578000", "183357.578000", "183359.578000", "183401.578000", "183403.578000", "183405.578000", "183407.578000", "183409.593000", "183411.578000", "183413.578000", "183415.578000", "183417.578000", "183419.578000", "183421.578000", "183423.578000", "183425.578000", "183427.578000", "183429.578000", "183431.578000", "183433.578000", "183435.578000", "183437.578000", "183439.515000"],
      "InstanceNumber": [1, 2, 3, 4, 5, 6, 7, 8, 9, 10, 11, 12, 13, 14, 15, 16, 17, 18, 19, 20, 21, 22, 23, 24, 25, 26, 27, 28, 29, 30, 31, 32, 33, 34, 35, 36, 37, 38, 39, 40, 41, 42, 43, 44, 45, 46, 47, 48, 49, 50, 51, 52, 53, 54, 55, 56, 57, 58, 59, 60, 61, 62, 63, 64, 65, 66, 67, 68, 69, 70, 71, 72, 73, 74, 75, 76, 77, 78, 79, 80, 81, 82, 83, 84, 85, 86, 87, 88, 89, 90, 91, 92, 93, 94, 95, 96, 97, 98, 99, 100, 101, 102, 103, 104, 105, 106, 107, 108, 109, 110, 111, 112, 113, 114, 115, 116, 117, 118, 119, 120, 121, 122, 123, 124, 125, 126, 127, 128, 129, 130, 131, 132, 133, 134, 135, 136, 137, 138, 139, 140, 141, 142, 143, 144, 145, 146, 147, 148, 149, 150, 151, 152, 153, 154, 155, 156, 157, 158, 159, 160, 161, 162, 163, 164, 165, 166, 167, 168, 169, 170, 171, 172, 173, 174, 175, 176, 177, 178, 179, 180, 181, 182, 183, 184, 185, 186, 187, 188, 189, 190, 191, 192, 193, 194, 195, 196, 197, 198, 199, 200, 201, 202, 203, 204, 205, 206, 207, 208, 209, 210],
      "LargestImagePixelValue": [2029, 1916, 1918, 1829, 1839, 1790, 1968, 1837, 1851, 1814, 1833, 1825, 1820, 1820, 1808, 1838, 1813, 1800, 1840, 1813, 1953, 1834, 1826, 1966, 1801, 1848, 1830, 1799, 1795, 1761, 1780, 1786, 1775, 1809, 1855, 1781, 1926, 1793, 1777, 1777, 1756, 1765, 1880, 1780, 1797, 1776, 1744, 1801, 1763, 1789, 1889, 1815, 1803, 1816, 1839, 1833, 1805, 1804, 1814, 1789, 1880, 1879, 1790, 1810, 1783, 1790, 1779, 1847, 1774, 1935, 1752, 1759, 1780, 1785, 1766, 1885, 1961, 1784, 1761, 1787, 1763, 1758, 1878, 1748, 1768, 1757, 1753, 1760, 1797, 1781, 1746, 1805, 1733, 1777, 1763, 1799, 1715, 1750, 1782, 1896, 1743, 1709, 1917, 1777, 1779, 1803, 1770, 1778, 1777, 1774, 1794, 1768, 1787, 1784, 1915, 1798, 1798, 1757, 1763, 1750, 1768, 1783, 1761, 1896, 1758, 1815, 1769, 1788, 1746, 1808, 1778, 1752, 1783, 1757, 1726, 1751, 1723, 1831, 1758, 1761, 1822, 1757, 1758, 1764, 1735, 1717, 1705, 1752, 1760, 1738, 1778, 2092, 1698, 1732, 1744, 1878, 1788, 1744, 1776, 1776, 1765, 1769, 1744, 1769, 1746, 1724, 1740, 1750, 1749, 1749, 1791, 1764, 1736, 1739, 1715, 1737, 1707, 1683, 1817, 1742, 1794, 1944, 1753, 1771, 1807, 1766, 1865, 1784, 1784, 1785, 1757, 1872, 1806, 1706, 1687, 1742, 1724, 1740, 1737, 1757, 1714, 1747, 1720, 1706, 1744, 1741, 1710, 1763, 1781, 1684],
      "WindowCenter": [750.0, 745.0, 747.0, 745.0, 744.0, 742.0, 742.0, 741.0, 741.0, 742.0, 743.0, 742.0, 742.0, 743.0, 742.0, 743.0, 745.0, 745.0, 745.0, 744.0, 744.0, 743.0, 743.0, 743.0, 742.0, 743.0, 744.0, 744.0, 745.0, 744.0, 744.0, 746.0, 746.0, 744.0, 743.0, 742.0, 742.0, 742.0, 741.0, 743.0, 746.0, 745.0, 743.0, 741.0, 742.0, 744.0, 744.0, 745.0, 746.0, 748.0, 745.0, 742.0, 741.0, 741.0, 742.0, 744.0, 743.0, 743.0, 743.0, 742.0, 741.0, 742.0, 741.0, 742.0, 742.0, 743.0, 743.0, 744.0, 744.0, 746.0, 745.0, 745.0, 746.0, 745.0, 744.0, 744.0, 743.0, 742.0, 742.0, 742.0, 742.0, 742.0, 743.0, 742.0, 742.0, 744.0, 744.0, 742.0, 742.0, 742.0, 746.0, 744.0, 742.0, 742.0, 742.0, 745.0, 747.0, 746.0, 746.0, 745.0, 743.0, 742.0, 742.0, 741.0, 740.0, 741.0, 742.0, 744.0, 744.0, 745.0, 748.0, 748.0, 747.0, 744.0, 744.0, 743.0, 744.0, 743.0, 743.0, 743.0, 743.0, 744.0, 744.0, 745.0, 744.0, 743.0, 743.0, 743.0, 743.0, 742.0, 743.0, 743.0, 746.0, 745.0, 743.0, 743.0, 743.0, 744.0, 743.0, 742.0, 742.0, 742.0, 742.0, 744.0, 745.0, 746.0, 747.0, 746.0, 746.0, 745.0, 746.0, 748.0, 745.0, 743.0, 742.0, 742.0, 740.0, 739.0, 740.0, 741.0, 741.0, 742.0, 743.0, 744.0, 744.0, 743.0, 743.0, 743.0, 743.0, 743.0, 743.0, 744.0, 745.0, 745.0, 746.0, 748.0, 750.0, 750.0, 748.0, 746.0, 745.0, 745.0, 743.0, 744.0, 744.0, 743.0, 743.0, 742.0, 743.0, 744.0, 744.0, 745.0, 744.0, 743.0, 742.0, 743.0, 743.0, 743.0, 744.0, 744.0, 744.0, 745.0, 745.0, 744.0, 743.0, 744.0, 744.0, 744.0, 745.0, 745.0],
      "WindowWidth": [1585.0, 1572.0, 1577.0, 1572.0, 1570.0, 1565.0, 1564.0, 1562.0, 1562.0, 1564.0, 1566.0, 1565.0, 1565.0, 1566.0, 1565.0, 1567.0, 1572.0, 1573.0, 1572.0, 1568.0, 1568.0, 1566.0, 1565.0, 1567.0, 1564.0, 1567.0, 1570.0, 1570.0, 1571.0, 1570.0, 1570.0, 1574.0, 1573.0, 1570.0, 1566.0, 1563.0, 1565.0, 1563.0, 1562.0, 1567.0, 1575.0, 1570.0, 1568.0, 1563.0, 1565.0, 1568.0, 1568.0, 1572.0, 1574.0, 1577.0, 1572.0, 1564.0, 1562.0, 1562.0, 1565.0, 1569.0, 1566.0, 1565.0, 1566.0, 1565.0, 1562.0, 1565.0, 1563.0, 1564.0, 1564.0, 1566.0, 1567.0, 1569.0, 1570.0, 1574.0, 1572.0, 1572.0, 1573.0, 1572.0, 1570.0, 1568.0, 1566.0, 1565.0, 1563.0, 1563.0, 1564.0, 1565.0, 1567.0, 1565.0, 1564.0, 1569.0, 1569.0, 1565.0, 1565.0, 1565.0, 1574.0, 1568.0, 1563.0, 1563.0, 1563.0, 1573.0, 1576.0, 1574.0, 1572.0, 1570.0, 1566.0, 1564.0, 1564.0, 1561.0, 1561.0, 1563.0, 1564.0, 1568.0, 1569.0, 1572.0, 1579.0, 1578.0, 1574.0, 1570.0, 1570.0, 1567.0, 1569.0, 1566.0, 1566.0, 1567.0, 1566.0, 1569.0, 1569.0, 1571.0, 1568.0, 1567.0, 1566.0, 1567.0, 1565.0, 1565.0, 1566.0, 1566.0, 1574.0, 1572.0, 1567.0, 1567.0, 1567.0, 1569.0, 1566.0, 1564.0, 1564.0, 1564.0, 1565.0, 1569.0, 1571.0, 1574.0, 1576.0, 1573.0, 1573.0, 1572.0, 1574.0, 1580.0, 1572.0, 1567.0, 1564.0, 1563.0, 1559.0, 1557.0, 1559.0, 1561.0, 1561.0, 1564.0, 1566.0, 1568.0, 1569.0, 1567.0, 1567.0, 1568.0, 1568.0, 1567.0, 1568.0, 1570.0, 1572.0, 1572.0, 1574.0, 1578.0, 1584.0, 1584.0, 1578.0, 1572.0, 1571.0, 1571.0, 1567.0, 1569.0, 1569.0, 1566.0, 1565.0, 1565.0, 1566.0, 1569.0, 1570.0, 1572.0, 1569.0, 1567.0, 1565.0, 1566.0, 1567.0, 1568.0, 1568.0, 1569.0, 1568.0, 1571.0, 1572.0, 1569.0, 1567.0, 1568.0, 1569.0, 1569.0, 1571.0, 1572.0]
    },
    "slices": {}
  }
}