{
  "AcquisitionMatrixPE": 64,
  "AcquisitionNumber": 1,
  "AcquisitionTime": "17:43:13.850000",
  "BandwidthPerPixelPhaseEncode": 30.637,
  "BaseResolution": 64,
  "BidsGuess": [
    "func",
    "_acq-epfid2_dir-AP_run-5_bold"
],
  "CoilCombinationMethod": "Sum of Squares",
  "CoilString": "C:HEA;HEP",
  "ConversionSoftware": "dcm2niix",
  "ConversionSoftwareVersion": "v1.0.20240202",
  "DerivedVendorReportedEchoSpacing": 0.000510004,
  "DeviceSerialNumber": "35119",
  "DwellTime": 3.5e-06,
  "EchoTime": 0.03,
  "EffectiveEchoSpacing": 0.000510004,
  "FlipAngle": 78,
  "HeudiconvVersion": "1.1.6",
  "ImageComments": "V",
  "ImageOrientationPatientDICOM": [0.99996, -0.003279, -0.00833, 0, 0.930492, -0.366312],
  "ImageOrientationText": "Tra>Cor(-21.5)>Sag(-0.5)",
  "ImageType": [
    "ORIGINAL",
    "PRIMARY",
    "M",
    "ND",
    "MOSAIC"
],
  "ImagingFrequency": 123.252081,
  "InPlanePhaseEncodingDirectionDICOM": "COL",
  "InstitutionAddress": "Chaucer Road  15,Cambridge,UK,GB,CB2 2EF",
  "InstitutionName": "MRC-CBU",
  "MRAcquisitionType": "2D",
  "MagneticFieldStrength": 3,
  "Manufacturer": "Siemens",
  "ManufacturersModelName": "TrioTim",
  "MatrixCoilMode": "SENSE",
  "Modality": "MR",
  "NonlinearGradientCorrection": false,
  "PartialFourier": 1,
  "PatientPosition": "HFS",
  "PercentPhaseFOV": 100,
  "PercentSampling": 100,
  "PhaseEncodingDirection": "j-",
  "PhaseEncodingSteps": 64,
  "PhaseResolution": 1,
  "PixelBandwidth": 2230,
  "ProcedureStepDescription": "CBU^Neuroimaging",
  "ProtocolName": "CBU_DWEPI_BOLD210",
  "PulseSequenceDetails": "%SiemensSeq%\\ep2d_bold",
  "ReceiveCoilName": "HeadMatrix",
  "ReconMatrixPE": 64,
  "RepetitionTime": 2,
  "SAR": 0.129421,
  "ScanOptions": "FS",
  "ScanningSequence": "EP",
  "SequenceName": "*epfid2d1_64",
  "SequenceVariant": "SK",
  "SeriesDescription": "CBU_DWEPI_BOLD210",
  "SeriesNumber": 5,
  "ShimSetting": [-7844, -8614, -2373, 974, -97, 784, -344, -35],
  "SliceThickness": 3,
  "SliceTiming": [0, 1.035, 0.06, 1.095, 0.1225, 1.155, 0.1825, 1.2175, 0.2425, 1.2775, 0.305, 1.3375, 0.365, 1.4, 0.425, 1.46, 0.4875, 1.52, 0.5475, 1.5825, 0.6075, 1.6425, 0.67, 1.7025, 0.73, 1.765, 0.79, 1.825, 0.8525, 1.885, 0.9125, 1.9475, 0.9725],
  "SoftwareVersions": "syngo MR B15",
  "SpacingBetweenSlices": 3.75,
  "StationName": "MRC35119",
  "TaskName": "faceprocessing",
  "TotalReadoutTime": 0.0321303,
  "TxRefAmp": 312.996,
  "dcmmeta_affine": [
    [-2.999880075454712, 0.0, -0.033570509403944016, 95.77283477783203],
    [0.009836999699473381, 2.791476011276245, -1.373615026473999, -62.95532989501953],
    [-0.02498999983072281, 1.0989359617233276, 3.4892053604125977, -73.0145263671875],
    [0.0, 0.0, 0.0, 1.0]
],
  "dcmmeta_reorient_transform": [
    [0.0, -1.0, 0.0, 63.0],
    [1.0, 0.0, 0.0, 0.0],
    [0.0, 0.0, 1.0, 0.0],
    [0.0, 0.0, 0.0, 1.0]
],
  "dcmmeta_shape": [64, 64, 33, 210],
  "dcmmeta_slice_dim": 2,
  "dcmmeta_version": 0.6,
  "global": {
    "const": {
      "AcquisitionMatrix": [64, 0, 0, 64],
      "AngioFlag": "N",
      "BitsAllocated": 16,
      "BitsStored": 12,
      "Columns": 384,
      "EchoNumbers": 1,
      "EchoTime": 30.0,
      "EchoTrainLength": 1,
      "FlipAngle": 78.0,
      "HighBit": 11,
      "ImageOrientationPatient": [0.99996, -0.003279, -0.00833, 0.0, 0.930492, -0.366312],
      "ImagePositionPatient": [-575.753638, -557.9699, 176.046598],
      "ImageType": [
        "ORIGINAL",
        "PRIMARY",
        "M",
        "ND",
        "MOSAIC"
],
      "ImagedNucleus": "1H",
      "ImagingFrequency": 123.252081,
      "InPlanePhaseEncodingDirection": "COL",
      "MRAcquisitionType": "2D",
      "MagneticFieldStrength": 3.0,
      "Manufacturer": "SIEMENS",
      "ManufacturerModelName": "TrioTim",
      "Modality": "MR",
      "NumberOfAverages": 1.0,
      "NumberOfPhaseEncodingSteps": 64,
      "PercentPhaseFieldOfView": 100.0,
      "PercentSampling": 100.0,
      "PerformedProcedureStepStartTime": "171511.593000",
      "PhotometricInterpretation": "MONOCHROME2",
      "PixelAspectRatio": [1, 1],
      "PixelBandwidth": 2230.0,
      "PixelRepresentation": 0,
      "PixelSpacing": [3.0, 3.0],
      "ProtocolName": "CBU_DWEPI_BOLD210",
      "RepetitionTime": 2000.0,
      "Rows": 384,
      "SAR": 0.129421,
      "SamplesPerPixel": 1,
      "ScanOptions": "FS",
      "ScanningSequence": "EP",
      "SequenceName": "*epfid2d1_64",
      "SequenceVariant": "SK",
      "SeriesDescription": "CBU_DWEPI_BOLD210",
      "SeriesNumber": 5,
      "SeriesTime": "174317.718000",
      "SliceLocation": -45.733594,
      "SliceThickness": 3.0,
      "SmallestImagePixelValue": 0,
      "SoftwareVersions": "syngo MR B15",
      "SpacingBetweenSlices": 3.75,
      "SpecificCharacterSet": "ISO_IR 100",
      "StudyID": "1",
      "StudyTime": "171511.437000",
      "TransmitCoilName": "Body",
      "VariableFlipAngleFlag": "N",
      "WindowCenterWidthExplanation": "Algo1",
      "dBdt": 0.0},
    "slices": {}
  },
  "time": {
    "samples": {
      "AcquisitionNumber": [1, 2, 3, 4, 5, 6, 7, 8, 9, 10, 11, 12, 13, 14, 15, 16, 17, 18, 19, 20, 21, 22, 23, 24, 25, 26, 27, 28, 29, 30, 31, 32, 33, 34, 35, 36, 37, 38, 39, 40, 41, 42, 43, 44, 45, 46, 47, 48, 49, 50, 51, 52, 53, 54, 55, 56, 57, 58, 59, 60, 61, 62, 63, 64, 65, 66, 67, 68, 69, 70, 71, 72, 73, 74, 75, 76, 77, 78, 79, 80, 81, 82, 83, 84, 85, 86, 87, 88, 89, 90, 91, 92, 93, 94, 95, 96, 97, 98, 99, 100, 101, 102, 103, 104, 105, 106, 107, 108, 109, 110, 111, 112, 113, 114, 115, 116, 117, 118, 119, 120, 121, 122, 123, 124, 125, 126, 127, 128, 129, 130, 131, 132, 133, 134, 135, 136, 137, 138, 139, 140, 141, 142, 143, 144, 145, 146, 147, 148, 149, 150, 151, 152, 153, 154, 155, 156, 157, 158, 159, 160, 161, 162, 163, 164, 165, 166, 167, 168, 169, 170, 171, 172, 173, 174, 175, 176, 177, 178, 179, 180, 181, 182, 183, 184, 185, 186, 187, 188, 189, 190, 191, 192, 193, 194, 195, 196, 197, 198, 199, 200, 201, 202, 203, 204, 205, 206, 207, 208, 209, 210],
      "AcquisitionTime": ["174313.850000", "174315.857500", "174317.865000", "174319.875000", "174321.882500", "174323.890000", "174325.897500", "174327.905000", "174329.915000", "174331.922500", "174333.930000", "174335.937500", "174337.945000", "174339.955000", "174341.962500", "174343.970000", "174345.977500", "174347.987500", "174349.995000", "174352.002500", "174354.010000", "174356.017500", "174358.027500", "174400.035000", "174402.042500", "174404.050000", "174406.057500", "174408.067500", "174410.075000", "174412.082500", "174414.090000", "174416.100000", "174418.107500", "174420.115000", "174422.122500", "174424.130000", "174426.140000", "174428.147500", "174430.155000", "174432.162500", "174434.170000", "174436.180000", "174438.187500", "174440.195000", "174442.202500", "174444.210000", "174446.220000", "174448.227500", "174450.235000", "174452.242500", "174454.252500", "174456.260000", "174458.267500", "174500.275000", "174502.282500", "174504.292500", "174506.300000", "174508.307500", "174510.315000", "174512.322500", "174514.332500", "174516.340000", "174518.347500", "174520.355000", "174522.365000", "174524.372500", "174526.380000", "174528.387500", "174530.395000", "174532.405000", "174534.412500", "174536.420000", "174538.427500", "174540.435000", "174542.445000", "174544.452500", "174546.460000", "174548.467500", "174550.477500", "174552.485000", "174554.492500", "174556.500000", "174558.507500", "174600.517500", "174602.525000", "174604.532500", "174606.540000", "174608.547500", "174610.557500", "174612.565000", "174614.572500", "174616.580000", "174618.590000", "174620.597500", "174622.605000", "174624.612500", "174626.620000", "174628.630000", "174630.637500", "174632.645000", "174634.652500", "174636.660000", "174638.670000", "174640.677500", "174642.685000", "174644.692500", "174646.700000", "174648.710000", "174650.717500", "174652.725000", "174654.732500", "174656.742500", "174658.750000", "174700.757500", "174702.765000", "174704.772500", "174706.782500", "174708.790000", "174710.797500", "174712.805000", "174714.812500", "174716.822500", "174718.830000", "174720.837500", "174722.845000", "174724.855000", "174726.862500", "174728.870000", "174730.877500", "174732.885000", "174734.895000", "174736.902500", "174738.910000", "174740.917500", "174742.925000", "174744.935000", "174746.942500", "174748.950000", "174750.957500", "174752.967500", "174754.975000", "174756.982500", "174758.990000", "174800.997500", "174803.007500", "174805.015000", "174807.022500", "174809.030000", "174811.037500", "174813.047500", "174815.055000", "174817.062500", "174819.070000", "174821.077500", "174823.087500", "174825.095000", "174827.102500", "174829.110000", "174831.120000", "174833.127500", "174835.135000", "174837.142500", "174839.150000", "174841.160000", "174843.167500", "174845.175000", "174847.182500", "174849.190000", "174851.200000", "174853.207500", "174855.215000", "174857.222500", "174859.232500", "174901.240000", "174903.247500", "174905.255000", "174907.262500", "174909.272500", "174911.280000", "174913.287500", "174915.295000", "174917.302500", "174919.312500", "174921.320000", "174923.327500", "174925.335000", "174927.345000", "174929.352500", "174931.360000", "174933.367500", "174935.375000", "174937.385000", "174939.392500", "174941.400000", "174943.407500", "174945.415000", "174947.425000", "174949.432500", "174951.440000", "174953.447500", "174955.455000", "174957.465000", "174959.472500", "175001.480000", "175003.487500", "175005.497500", "175007.505000", "175009.512500", "175011.520000", "175013.527500"],
      "ContentTime": ["174317.734000", "174319.718000", "174321.718000", "174323.718000", "174325.718000", "174327.718000", "174329.718000", "174331.718000", "174333.718000", "174335.718000", "174337.718000", "174339.718000", "174341.718000", "174343.718000", "174345.718000", "174347.718000", "174349.718000", "174351.718000", "174353.718000", "174355.718000", "174357.718000", "174359.718000", "174401.718000", "174403.718000", "174405.718000", "174407.718000", "174409.718000", "174411.718000", "174413.718000", "174415.718000", "174417.718000", "174419.718000", "174421.718000", "174423.718000", "174425.718000", "174427.718000", "174429.718000", "174431.718000", "174433.718000", "174435.718000", "174437.718000", "174439.718000", "174441.718000", "174443.718000", "174445.718000", "174447.718000", "174449.718000", "174451.718000", "174453.718000", "174455.718000", "174457.718000", "174459.718000", "174501.718000", "174503.718000", "174505.718000", "174507.718000", "174509.718000", "174511.718000", "174513.718000", "174515.718000", "174517.718000", "174519.718000", "174521.718000", "174523.718000", "174525.718000", "174527.718000", "174529.718000", "174531.718000", "174533.718000", "174535.718000", "174537.718000", "174539.718000", "174541.718000", "174543.718000", "174545.718000", "174547.718000", "174549.718000", "174551.718000", "174553.718000", "174555.718000", "174557.718000", "174559.718000", "174601.718000", "174603.718000", "174605.718000", "174607.718000", "174609.718000", "174611.718000", "174613.718000", "174615.718000", "174617.718000", "174619.718000", "174621.718000", "174623.718000", "174625.718000", "174627.718000", "174629.718000", "174631.718000", "174633.718000", "174635.718000", "174637.718000", "174639.718000", "174641.718000", "174643.718000", "174645.718000", "174647.718000", "174649.718000", "174651.718000", "174653.718000", "174655.718000", "174657.718000", "174659.718000", "174701.718000", "174703.718000", "174705.718000", "174707.718000", "174709.718000", "174711.718000", "174713.718000", "174715.718000", "174717.718000", "174719.718000", "174721.718000", "174723.718000", "174725.718000", "174727.718000", "174729.718000", "174731.718000", "174733.718000", "174735.718000", "174737.718000", "174739.718000", "174741.718000", "174743.718000", "174745.718000", "174747.718000", "174749.718000", "174751.718000", "174753.718000", "174755.718000", "174757.718000", "174759.718000", "174801.718000", "174803.718000", "174805.718000", "174807.718000", "174809.718000", "174811.718000", "174813.718000", "174815.718000", "174817.718000", "174819.718000", "174821.718000", "174823.718000", "174825.718000", "174827.718000", "174829.718000", "174831.718000", "174833.718000", "174835.718000", "174837.718000", "174839.718000", "174841.718000", "174843.718000", "174845.718000", "174847.718000", "174849.718000", "174851.718000", "174853.718000", "174855.718000", "174857.718000", "174859.718000", "174901.718000", "174903.718000", "174905.718000", "174907.718000", "174909.718000", "174911.718000", "174913.718000", "174915.718000", "174917.718000", "174919.718000", "174921.718000", "174923.718000", "174925.718000", "174927.718000", "174929.718000", "174931.718000", "174933.718000", "174935.718000", "174937.718000", "174939.718000", "174941.718000", "174943.718000", "174945.718000", "174947.718000", "174949.718000", "174951.718000", "174953.718000", "174955.718000", "174957.718000", "174959.718000", "175001.718000", "175003.718000", "175005.718000", "175007.718000", "175009.718000", "175011.718000", "175013.718000", "175015.250000"],
      "InstanceCreationTime": ["174317.734000", "174319.718000", "174321.718000", "174323.718000", "174325.718000", "174327.718000", "174329.718000", "174331.718000", "174333.718000", "174335.718000", "174337.718000", "174339.718000", "174341.718000", "174343.718000", "174345.718000", "174347.718000", "174349.718000", "174351.718000", "174353.718000", "174355.718000", "174357.718000", "174359.718000", "174401.718000", "174403.718000", "174405.718000", "174407.718000", "174409.718000", "174411.718000", "174413.718000", "174415.718000", "174417.718000", "174419.718000", "174421.718000", "174423.718000", "174425.718000", "174427.718000", "174429.718000", "174431.718000", "174433.718000", "174435.718000", "174437.718000", "174439.718000", "174441.718000", "174443.718000", "174445.718000", "174447.718000", "174449.718000", "174451.718000", "174453.718000", "174455.718000", "174457.718000", "174459.718000", "174501.718000", "174503.718000", "174505.718000", "174507.718000", "174509.718000", "174511.718000", "174513.718000", "174515.718000", "174517.718000", "174519.718000", "174521.718000", "174523.718000", "174525.718000", "174527.718000", "174529.718000", "174531.718000", "174533.718000", "174535.718000", "174537.718000", "174539.718000", "174541.718000", "174543.718000", "174545.718000", "174547.718000", "174549.718000", "174551.718000", "174553.718000", "174555.718000", "174557.718000", "174559.718000", "174601.718000", "174603.718000", "174605.718000", "174607.718000", "174609.718000", "174611.718000", "174613.718000", "174615.718000", "174617.718000", "174619.718000", "174621.718000", "174623.718000", "174625.718000", "174627.718000", "174629.718000", "174631.718000", "174633.718000", "174635.718000", "174637.718000", "174639.718000", "174641.718000", "174643.718000", "174645.718000", "174647.718000", "174649.718000", "174651.718000", "174653.718000", "174655.718000", "174657.718000", "174659.718000", "174701.718000", "174703.718000", "174705.718000", "174707.718000", "174709.718000", "174711.718000", "174713.718000", "174715.718000", "174717.718000", "174719.718000", "174721.718000", "174723.718000", "174725.718000", "174727.718000", "174729.718000", "174731.718000", "174733.718000", "174735.718000", "174737.718000", "174739.718000", "174741.718000", "174743.718000", "174745.718000", "174747.718000", "174749.718000", "174751.718000", "174753.718000", "174755.718000", "174757.718000", "174759.718000", "174801.718000", "174803.718000", "174805.718000", "174807.718000", "174809.718000", "174811.718000", "174813.718000", "174815.718000", "174817.718000", "174819.718000", "174821.718000", "174823.718000", "174825.718000", "174827.718000", "174829.718000", "174831.718000", "174833.718000", "174835.718000", "174837.718000", "174839.718000", "174841.718000", "174843.718000", "174845.718000", "174847.718000", "174849.718000", "174851.718000", "174853.718000", "174855.718000", "174857.718000", "174859.718000", "174901.718000", "174903.718000", "174905.718000", "174907.718000", "174909.718000", "174911.718000", "174913.718000", "174915.718000", "174917.718000", "174919.718000", "174921.718000", "174923.718000", "174925.718000", "174927.718000", "174929.718000", "174931.718000", "174933.718000", "174935.718000", "174937.718000", "174939.718000", "174941.718000", "174943.718000", "174945.718000", "174947.718000", "174949.718000", "174951.718000", "174953.718000", "174955.718000", "174957.718000", "174959.718000", "175001.718000", "175003.718000", "175005.718000", "175007.718000", "175009.718000", "175011.718000", "175013.718000", "175015.250000"],
      "InstanceNumber": [1, 2, 3, 4, 5, 6, 7, 8, 9, 10, 11, 12, 13, 14, 15, 16, 17, 18, 19, 20, 21, 22, 23, 24, 25, 26, 27, 28, 29, 30, 31, 32, 33, 34, 35, 36, 37, 38, 39, 40, 41, 42, 43, 44, 45, 46, 47, 48, 49, 50, 51, 52, 53, 54, 55, 56, 57, 58, 59, 60, 61, 62, 63, 64, 65, 66, 67, 68, 69, 70, 71, 72, 73, 74, 75, 76, 77, 78, 79, 80, 81, 82, 83, 84, 85, 86, 87, 88, 89, 90, 91, 92, 93, 94, 95, 96, 97, 98, 99, 100, 101, 102, 103, 104, 105, 106, 107, 108, 109, 110, 111, 112, 113, 114, 115, 116, 117, 118, 119, 120, 121, 122, 123, 124, 125, 126, 127, 128, 129, 130, 131, 132, 133, 134, 135, 136, 137, 138, 139, 140, 141, 142, 143, 144, 145, 146, 147, 148, 149, 150, 151, 152, 153, 154, 155, 156, 157, 158, 159, 160, 161, 162, 163, 164, 165, 166, 167, 168, 169, 170, 171, 172, 173, 174, 175, 176, 177, 178, 179, 180, 181, 182, 183, 184, 185, 186, 187, 188, 189, 190, 191, 192, 193, 194, 195, 196, 197, 198, 199, 200, 201, 202, 203, 204, 205, 206, 207, 208, 209, 210],
      "LargestImagePixelValue": [2014, 2027, 1899, 1858, 2091, 1866, 1891, 1878, 2062, 1892, 2062, 1873, 1928, 1892, 1892, 1958, 1902, 1892, 2154, 1894, 1951, 1908, 1916, 1901, 2059, 1876, 1885, 1875, 1858, 1890, 2109, 1902, 1901, 2059, 1902, 1966, 1877, 1889, 2120, 1909, 1987, 1906, 1905, 2099, 1901, 1913, 2012, 1901, 1935, 1894, 1887, 1894, 1881, 2111, 1914, 1948, 1923, 1940, 1912, 1927, 1914, 1931, 1951, 1913, 1903, 1900, 2059, 1906, 1923, 1898, 1914, 1917, 2069, 1926, 1918, 1921, 2157, 1922, 1920, 1919, 1941, 1910, 1900, 1915, 2023, 1991, 1932, 1914, 1904, 2019, 1913, 2134, 1909, 1898, 1913, 1920, 2006, 1928, 1934, 1917, 1920, 1916, 1947, 1929, 1915, 1916, 1892, 1908, 2054, 1992, 1923, 1934, 1932, 2040, 1952, 1915, 1933, 1923, 2052, 2136, 1930, 1925, 2177, 1946, 1908, 1883, 1894, 1928, 1896, 1927, 1923, 1911, 1903, 1941, 1912, 2067, 1923, 1911, 1931, 1993, 2012, 2223, 1935, 1895, 1899, 1918, 1897, 1882, 1908, 1922, 1901, 1931, 1963, 1934, 2220, 1905, 1915, 1889, 2129, 1893, 1908, 1906, 1913, 2149, 1894, 1913, 1897, 1908, 1933, 1909, 1913, 1941, 1889, 1936, 1922, 1942, 2076, 1927, 1917, 2042, 1907, 1906, 1930, 1916, 1913, 1917, 1921, 2125, 1923, 1909, 1946, 1913, 1917, 2152, 1928, 1927, 1917, 1912, 1908, 1907, 1919, 1938, 1932, 1932, 1930, 2033, 1927, 1920, 1922, 1884],
      "WindowCenter": [755.0, 749.0, 748.0, 748.0, 750.0, 749.0, 749.0, 749.0, 750.0, 747.0, 747.0, 747.0, 750.0, 747.0, 747.0, 748.0, 746.0, 744.0, 745.0, 745.0, 747.0, 747.0, 748.0, 748.0, 749.0, 749.0, 749.0, 750.0, 751.0, 750.0, 750.0, 749.0, 749.0, 749.0, 748.0, 748.0, 747.0, 747.0, 748.0, 748.0, 749.0, 747.0, 748.0, 749.0, 748.0, 749.0, 750.0, 750.0, 749.0, 748.0, 749.0, 749.0, 749.0, 751.0, 750.0, 749.0, 748.0, 746.0, 746.0, 748.0, 748.0, 748.0, 748.0, 750.0, 751.0, 749.0, 749.0, 748.0, 749.0, 750.0, 752.0, 751.0, 751.0, 749.0, 749.0, 748.0, 748.0, 747.0, 747.0, 747.0, 748.0, 748.0, 750.0, 750.0, 750.0, 752.0, 750.0, 749.0, 750.0, 749.0, 748.0, 749.0, 747.0, 747.0, 751.0, 750.0, 749.0, 748.0, 748.0, 750.0, 752.0, 751.0, 751.0, 749.0, 748.0, 749.0, 750.0, 749.0, 749.0, 749.0, 753.0, 754.0, 751.0, 749.0, 749.0, 746.0, 746.0, 746.0, 748.0, 751.0, 752.0, 752.0, 747.0, 744.0, 743.0, 744.0, 747.0, 748.0, 749.0, 750.0, 751.0, 750.0, 750.0, 750.0, 751.0, 750.0, 752.0, 752.0, 751.0, 751.0, 749.0, 749.0, 748.0, 748.0, 749.0, 749.0, 750.0, 751.0, 753.0, 755.0, 756.0, 756.0, 754.0, 752.0, 750.0, 748.0, 747.0, 747.0, 748.0, 748.0, 748.0, 748.0, 749.0, 750.0, 750.0, 751.0, 751.0, 751.0, 752.0, 751.0, 751.0, 751.0, 751.0, 752.0, 752.0, 751.0, 750.0, 749.0, 749.0, 750.0, 749.0, 748.0, 749.0, 750.0, 751.0, 753.0, 752.0, 752.0, 751.0, 751.0, 752.0, 751.0, 751.0, 752.0, 751.0, 752.0, 751.0, 750.0, 749.0, 752.0, 754.0, 754.0, 754.0, 754.0, 753.0, 752.0, 751.0, 751.0, 753.0, 755.0],
      "WindowWidth": [1598.0, 1583.0, 1579.0, 1578.0, 1583.0, 1581.0, 1582.0, 1582.0, 1583.0, 1577.0, 1578.0, 1577.0, 1584.0, 1578.0, 1577.0, 1579.0, 1575.0, 1569.0, 1572.0, 1572.0, 1578.0, 1578.0, 1579.0, 1580.0, 1581.0, 1581.0, 1582.0, 1584.0, 1587.0, 1584.0, 1583.0, 1582.0, 1581.0, 1583.0, 1579.0, 1578.0, 1576.0, 1576.0, 1579.0, 1578.0, 1581.0, 1577.0, 1579.0, 1583.0, 1580.0, 1582.0, 1585.0, 1583.0, 1581.0, 1580.0, 1582.0, 1582.0, 1582.0, 1586.0, 1583.0, 1581.0, 1579.0, 1575.0, 1575.0, 1580.0, 1578.0, 1579.0, 1581.0, 1583.0, 1587.0, 1582.0, 1581.0, 1580.0, 1583.0, 1584.0, 1589.0, 1586.0, 1587.0, 1580.0, 1581.0, 1579.0, 1579.0, 1577.0, 1576.0, 1578.0, 1580.0, 1579.0, 1583.0, 1583.0, 1585.0, 1590.0, 1584.0, 1583.0, 1584.0, 1582.0, 1579.0, 1581.0, 1576.0, 1578.0, 1586.0, 1583.0, 1581.0, 1579.0, 1581.0, 1586.0, 1588.0, 1587.0, 1586.0, 1583.0, 1580.0, 1582.0, 1583.0, 1582.0, 1581.0, 1583.0, 1591.0, 1593.0, 1586.0, 1581.0, 1581.0, 1574.0, 1575.0, 1575.0, 1580.0, 1589.0, 1591.0, 1589.0, 1578.0, 1570.0, 1566.0, 1570.0, 1576.0, 1579.0, 1581.0, 1585.0, 1587.0, 1585.0, 1584.0, 1585.0, 1586.0, 1585.0, 1590.0, 1588.0, 1587.0, 1586.0, 1582.0, 1582.0, 1580.0, 1580.0, 1582.0, 1582.0, 1584.0, 1587.0, 1592.0, 1596.0, 1600.0, 1599.0, 1594.0, 1588.0, 1585.0, 1579.0, 1578.0, 1576.0, 1578.0, 1579.0, 1579.0, 1579.0, 1581.0, 1584.0, 1583.0, 1587.0, 1588.0, 1586.0, 1589.0, 1588.0, 1588.0, 1587.0, 1587.0, 1589.0, 1589.0, 1587.0, 1585.0, 1581.0, 1581.0, 1583.0, 1581.0, 1580.0, 1582.0, 1584.0, 1587.0, 1592.0, 1589.0, 1588.0, 1586.0, 1587.0, 1588.0, 1587.0, 1585.0, 1589.0, 1587.0, 1589.0, 1586.0, 1583.0, 1582.0, 1589.0, 1594.0, 1595.0, 1595.0, 1593.0, 1590.0, 1589.0, 1586.0, 1586.0, 1592.0, 1596.0]
    },
    "slices": {}
  }
}