{
  "AcquisitionMatrixPE": 64,
  "AcquisitionNumber": 1,
  "AcquisitionTime": "18:00:52.365000",
  "BaseResolution": 64,
  "BidsGuess": [
    "fmap",
    "_acq-fm2_phasediff"
  ],
  "CoilCombinationMethod": "Adaptive Combine",
  "CoilString": "C:HEA;HEP",
  "ConversionSoftware": "dcm2niix",
  "ConversionSoftwareVersion": "v1.0.20240202",
  "DeviceSerialNumber": "35119",
  "DwellTime": 0.00003,
  "EchoNumber": 2,
  "EchoTime": 0.00765,
  "EchoTime1": 0.00519,
  "EchoTime2": 0.00765,
  "FlipAngle": 60,
  "HeudiconvVersion": "1.1.6",
  "ImageComments": "V",
  "ImageOrientationPatientDICOM": [
    1,
    0,
    0,
    0,
    0.930418,
    -0.366501
  ],
  "ImageOrientationText": "Tra>Cor(-21.5)",
  "ImageType": [
    "ORIGINAL",
    "PRIMARY",
    "P",
    "ND",
    "PHASE"
  ],
  "ImagingFrequency": 123.251851,
  "InPlanePhaseEncodingDirectionDICOM": "COL",
  "InstitutionAddress": "Chaucer Road  15,Cambridge,UK,GB,CB2 2EF",
  "InstitutionName": "MRC-CBU",
  "IntendedFor": [
    "ses-mri/func/sub-06_ses-mri_task-facerecognition_run-01_bold.nii.gz",
    "ses-mri/func/sub-06_ses-mri_task-facerecognition_run-02_bold.nii.gz",
    "ses-mri/func/sub-06_ses-mri_task-facerecognition_run-03_bold.nii.gz",
    "ses-mri/func/sub-06_ses-mri_task-facerecognition_run-04_bold.nii.gz",
    "ses-mri/func/sub-06_ses-mri_task-facerecognition_run-05_bold.nii.gz",
    "ses-mri/func/sub-06_ses-mri_task-facerecognition_run-06_bold.nii.gz",
    "ses-mri/func/sub-06_ses-mri_task-facerecognition_run-07_bold.nii.gz",
    "ses-mri/func/sub-06_ses-mri_task-facerecognition_run-08_bold.nii.gz",
    "ses-mri/func/sub-06_ses-mri_task-facerecognition_run-09_bold.nii.gz"
  ],
  "MRAcquisitionType": "2D",
  "MagneticFieldStrength": 3,
  "Manufacturer": "Siemens",
  "ManufacturersModelName": "TrioTim",
  "MatrixCoilMode": "SENSE",
  "Modality": "MR",
  "NonlinearGradientCorrection": false,
  "PartialFourier": 1,
  "PatientPosition": "HFS",
  "PercentPhaseFOV": 100,
  "PercentSampling": 100,
  "PhaseEncodingDirection": "j-",
  "PhaseEncodingSteps": 64,
  "PhaseResolution": 1,
  "PixelBandwidth": 260,
  "ProcedureStepDescription": "CBU^Neuroimaging",
  "ProtocolName": "CBU_FieldMapping",
  "PulseSequenceDetails": "%SiemensSeq%\\gre_field_mapping",
  "ReceiveCoilName": "HeadMatrix",
  "ReconMatrixPE": 64,
  "RepetitionTime": 0.4,
  "SAR": 0.209888,
  "ScanningSequence": "GR",
  "SequenceName": "*fm2d2r",
  "SequenceVariant": "SP",
  "SeriesDescription": "CBU_FieldMapping",
  "SeriesNumber": 13,
  "ShimSetting": [
    -7830,
    -8787,
    -2019,
    718,
    120,
    -76,
    -200,
    113
  ],
  "SliceThickness": 3,
  "SliceTiming": [
    0,
    0.21875,
    0.01562,
    0.21875,
    0.03125,
    0.23438,
    0.04688,
    0.25,
    0.0625,
    0.26562,
    0.0625,
    0.26562,
    0.07812,
    0.28125,
    0.09375,
    0.29688,
    0.10938,
    0.3125,
    0.10938,
    0.32812,
    0.125,
    0.32812,
    0.14062,
    0.34375,
    0.15625,
    0.35938,
    0.17188,
    0.375,
    0.17188,
    0.39062,
    0.1875,
    0.39062,
    0.20312
  ],
  "SoftwareVersions": "syngo MR B15",
  "SpacingBetweenSlices": 4.05,
  "StationName": "MRC35119",
  "TxRefAmp": 337.525,
  "dcmmeta_affine": [
    [
      -3.0,
      0.0,
      0.0,
      100.06779479980469
    ],
    [
      0.0,
      2.7912540435791016,
      -1.4843310117721558,
      -50.150062561035156
    ],
    [
      0.0,
      1.0995030403137207,
      3.768187999725342,
      -71.61524200439453
    ],
    [
      0.0,
      0.0,
      0.0,
      1.0
    ]
  ],
  "dcmmeta_reorient_transform": [
    [
      0.0,
      -1.0,
      0.0,
      63.0
    ],
    [
      1.0,
      0.0,
      0.0,
      0.0
    ],
    [
      0.0,
      0.0,
      -1.0,
      32.0
    ],
    [
      0.0,
      0.0,
      0.0,
      1.0
    ]
  ],
  "dcmmeta_shape": [
    64,
    64,
    33
  ],
  "dcmmeta_slice_dim": 2,
  "dcmmeta_version": 0.6,
  "global": {
    "const": {
      "AcquisitionMatrix": [
        64,
        0,
        0,
        64
      ],
      "AcquisitionNumber": 1,
      "AngioFlag": "N",
      "BitsAllocated": 16,
      "BitsStored": 12,
      "Columns": 64,
      "EchoNumbers": 2,
      "EchoTime": 7.65,
      "EchoTrainLength": 1,
      "FlipAngle": 60.0,
      "HighBit": 11,
      "ImageOrientationPatient": [
        1.0,
        0.0,
        0.0,
        0.0,
        0.930418,
        -0.366501
      ],
      "ImageType": [
        "ORIGINAL",
        "PRIMARY",
        "P",
        "ND"
      ],
      "ImagedNucleus": "1H",
      "ImagingFrequency": 123.251851,
      "InPlanePhaseEncodingDirection": "COL",
      "MRAcquisitionType": "2D",
      "MagneticFieldStrength": 3.0,
      "Manufacturer": "SIEMENS",
      "ManufacturerModelName": "TrioTim",
      "Modality": "MR",
      "NumberOfAverages": 1.0,
      "NumberOfPhaseEncodingSteps": 64,
      "PercentPhaseFieldOfView": 100.0,
      "PercentSampling": 100.0,
      "PerformedProcedureStepStartTime": "164313.515000",
      "PhotometricInterpretation": "MONOCHROME2",
      "PixelAspectRatio": [
        1,
        1
      ],
      "PixelBandwidth": 260.0,
      "PixelRepresentation": 0,
      "PixelSpacing": [
        3.0,
        3.0
      ],
      "ProtocolName": "CBU_FieldMapping",
      "RepetitionTime": 400.0,
      "RescaleIntercept": -4096.0,
      "RescaleSlope": 2.0,
      "RescaleType": "US",
      "Rows": 64,
      "SAR": 0.209888,
      "SamplesPerPixel": 1,
      "ScanningSequence": "GR",
      "SequenceName": "*fm2d2r",
      "SequenceVariant": "SP",
      "SeriesDescription": "CBU_FieldMapping",
      "SeriesNumber": 13,
      "SeriesTime": "180144.875000",
      "SliceThickness": 3.0,
      "SoftwareVersions": "syngo MR B15",
      "SpacingBetweenSlices": 4.05,
      "SpecificCharacterSet": "ISO_IR 100",
      "StudyID": "1",
      "StudyTime": "164313.453000",
      "TransmitCoilName": "Body",
      "VariableFlipAngleFlag": "N",
      "WindowCenterWidthExplanation": "Algo1",
      "dBdt": 0.0
    },
    "slices": {
      "AcquisitionTime": [
        "180052.365000",
        "180052.572500",
        "180052.377500",
        "180052.585000",
        "180052.390000",
        "180052.597500",
        "180052.402500",
        "180052.610000",
        "180052.415000",
        "180052.622500",
        "180052.427500",
        "180052.632500",
        "180052.440000",
        "180052.645000",
        "180052.450000",
        "180052.657500",
        "180052.462500",
        "180052.670000",
        "180052.475000",
        "180052.682500",
        "180052.487500",
        "180052.695000",
        "180052.500000",
        "180052.707500",
        "180052.512500",
        "180052.720000",
        "180052.525000",
        "180052.730000",
        "180052.537500",
        "180052.742500",
        "180052.547500",
        "180052.755000",
        "180052.560000"
      ],
      "ContentTime": [
        "180144.890000",
        "180145.781000",
        "180144.937000",
        "180145.796000",
        "180144.937000",
        "180145.796000",
        "180144.937000",
        "180145.796000",
        "180144.953000",
        "180145.812000",
        "180144.953000",
        "180145.812000",
        "180144.953000",
        "180145.812000",
        "180144.968000",
        "180145.828000",
        "180145.000000",
        "180145.843000",
        "180145.031000",
        "180145.843000",
        "180145.031000",
        "180145.843000",
        "180145.031000",
        "180145.859000",
        "180145.046000",
        "180145.859000",
        "180145.046000",
        "180145.859000",
        "180145.062000",
        "180145.875000",
        "180145.765000",
        "180145.921000",
        "180145.781000"
      ],
      "CsaImage.GSWDDataType": [
        "predicted",
        "measured",
        "predicted",
        "measured",
        "predicted",
        "measured",
        "predicted",
        "measured",
        "predicted",
        "measured",
        "predicted",
        "measured",
        "predicted",
        "measured",
        "predicted",
        "measured",
        "predicted",
        "measured",
        "predicted",
        "measured",
        "measured",
        "measured",
        "measured",
        "measured",
        "measured",
        "measured",
        "measured",
        "measured",
        "measured",
        "measured",
        "measured",
        "measured",
        "measured"
      ],
      "CsaImage.ICE_Dims": [
        "X_2_1_1_1_1_1_1_1_1_1_1_146",
        "X_2_1_1_1_1_1_18_1_1_2_1_146",
        "X_2_1_1_1_1_1_2_1_1_3_1_146",
        "X_2_1_1_1_1_1_19_1_1_4_1_146",
        "X_2_1_1_1_1_1_3_1_1_5_1_146",
        "X_2_1_1_1_1_1_20_1_1_6_1_146",
        "X_2_1_1_1_1_1_4_1_1_7_1_146",
        "X_2_1_1_1_1_1_21_1_1_8_1_146",
        "X_2_1_1_1_1_1_5_1_1_9_1_146",
        "X_2_1_1_1_1_1_22_1_1_10_1_146",
        "X_2_1_1_1_1_1_6_1_1_11_1_146",
        "X_2_1_1_1_1_1_23_1_1_12_1_146",
        "X_2_1_1_1_1_1_7_1_1_13_1_146",
        "X_2_1_1_1_1_1_24_1_1_14_1_146",
        "X_2_1_1_1_1_1_8_1_1_15_1_146",
        "X_2_1_1_1_1_1_25_1_1_16_1_146",
        "X_2_1_1_1_1_1_9_1_1_17_1_146",
        "X_2_1_1_1_1_1_26_1_1_18_1_146",
        "X_2_1_1_1_1_1_10_1_1_19_1_146",
        "X_2_1_1_1_1_1_27_1_1_20_1_146",
        "X_2_1_1_1_1_1_11_1_1_21_1_146",
        "X_2_1_1_1_1_1_28_1_1_22_1_146",
        "X_2_1_1_1_1_1_12_1_1_23_1_146",
        "X_2_1_1_1_1_1_29_1_1_24_1_146",
        "X_2_1_1_1_1_1_13_1_1_25_1_146",
        "X_2_1_1_1_1_1_30_1_1_26_1_146",
        "X_2_1_1_1_1_1_14_1_1_27_1_146",
        "X_2_1_1_1_1_1_31_1_1_28_1_146",
        "X_2_1_1_1_1_1_15_1_1_29_1_146",
        "X_2_1_1_1_1_1_32_1_1_30_1_146",
        "X_2_1_1_1_1_1_16_1_1_31_1_146",
        "X_2_1_1_1_1_1_33_1_1_32_1_146",
        "X_2_1_1_1_1_1_17_1_1_33_1_146"
      ],
      "CsaImage.ProtocolSliceNumber": [
        0,
        1,
        2,
        3,
        4,
        5,
        6,
        7,
        8,
        9,
        10,
        11,
        12,
        13,
        14,
        15,
        16,
        17,
        18,
        19,
        20,
        21,
        22,
        23,
        24,
        25,
        26,
        27,
        28,
        29,
        30,
        31,
        32
      ],
      "CsaImage.RFSWDDataType": [
        "predicted",
        "measured",
        "predicted",
        "measured",
        "predicted",
        "measured",
        "predicted",
        "measured",
        "predicted",
        "measured",
        "predicted",
        "measured",
        "predicted",
        "measured",
        "predicted",
        "measured",
        "predicted",
        "measured",
        "predicted",
        "measured",
        "measured",
        "measured",
        "measured",
        "measured",
        "measured",
        "measured",
        "measured",
        "measured",
        "measured",
        "measured",
        "measured",
        "measured",
        "measured"
      ],
      "CsaImage.SlicePosition_PCS": [
        [
          -100.06779671,
          -125.69890449,
          -2.34665019
        ],
        [
          -100.06779671,
          -124.21457527,
          1.4215421
        ],
        [
          -100.06779671,
          -122.73024604,
          5.18973439
        ],
        [
          -100.06779671,
          -121.24591491,
          8.95792477
        ],
        [
          -100.06779671,
          -119.76158569,
          12.72611516
        ],
        [
          -100.06779671,
          -118.27725647,
          16.49430745
        ],
        [
          -100.06779671,
          -116.79292533,
          20.26249783
        ],
        [
          -100.06779671,
          -115.30859611,
          24.03068917
        ],
        [
          -100.06779671,
          -113.82426498,
          27.79888051
        ],
        [
          -100.06779671,
          -112.33993576,
          31.56707161
        ],
        [
          -100.06779671,
          -110.85560653,
          35.33526275
        ],
        [
          -100.06779671,
          -109.3712754,
          39.1034538
        ],
        [
          -100.06779671,
          -107.88694618,
          42.8716449
        ],
        [
          -100.06779671,
          -106.40261505,
          46.63983624
        ],
        [
          -100.06779671,
          -104.91828582,
          50.40802758
        ],
        [
          -100.06779671,
          -103.43395565,
          54.17621892
        ],
        [
          -100.06779671,
          -101.94962642,
          57.9444093
        ],
        [
          -100.06779671,
          -100.46529625,
          61.71260159
        ],
        [
          -100.06779671,
          -98.98096607,
          65.48079197
        ],
        [
          -100.06779671,
          -97.49663589,
          69.24898427
        ],
        [
          -100.06779671,
          -96.01230619,
          73.01717274
        ],
        [
          -100.06779671,
          -94.52797601,
          76.78536503
        ],
        [
          -100.06779671,
          -93.04364631,
          80.55355733
        ],
        [
          -100.06779671,
          -91.55931614,
          84.3217458
        ],
        [
          -100.06779671,
          -90.07498626,
          88.08993809
        ],
        [
          -100.06779671,
          -88.59065632,
          91.85813038
        ],
        [
          -100.06779671,
          -87.10632632,
          95.62632268
        ],
        [
          -100.06779671,
          -85.62199638,
          99.39451497
        ],
        [
          -100.06779671,
          -84.1376662,
          103.16270344
        ],
        [
          -100.06779671,
          -82.6533365,
          106.93089192
        ],
        [
          -100.06779671,
          -81.1690068,
          110.69908803
        ],
        [
          -100.06779671,
          -79.68467662,
          114.4672765
        ],
        [
          -100.06779671,
          -78.20034645,
          118.23546498
        ]
      ],
      "CsaImage.TimeAfterStart": [
        0.405,
        0.61,
        0.415,
        0.6225,
        0.4275,
        0.635,
        0.44,
        0.6475,
        0.4525,
        0.66,
        0.465,
        0.6725,
        0.4775,
        0.6825,
        0.49,
        0.695,
        0.5,
        0.7075,
        0.5125,
        0.72,
        0.525,
        0.7325,
        0.5375,
        0.745,
        0.55,
        0.7575,
        0.5625,
        0.77,
        0.575,
        0.78,
        0.5875,
        0.7925,
        0.5975
      ],
      "ImagePositionPatient": [
        [
          -100.067797,
          -125.698904,
          -2.34665
        ],
        [
          -100.067797,
          -124.214575,
          1.421542
        ],
        [
          -100.067797,
          -122.730246,
          5.189734
        ],
        [
          -100.067797,
          -121.245915,
          8.957925
        ],
        [
          -100.067797,
          -119.761586,
          12.726115
        ],
        [
          -100.067797,
          -118.277256,
          16.494307
        ],
        [
          -100.067797,
          -116.792925,
          20.262498
        ],
        [
          -100.067797,
          -115.308596,
          24.030689
        ],
        [
          -100.067797,
          -113.824265,
          27.798881
        ],
        [
          -100.067797,
          -112.339936,
          31.567072
        ],
        [
          -100.067797,
          -110.855607,
          35.335263
        ],
        [
          -100.067797,
          -109.371275,
          39.103454
        ],
        [
          -100.067797,
          -107.886946,
          42.871645
        ],
        [
          -100.067797,
          -106.402615,
          46.639836
        ],
        [
          -100.067797,
          -104.918286,
          50.408028
        ],
        [
          -100.067797,
          -103.433956,
          54.176219
        ],
        [
          -100.067797,
          -101.949626,
          57.944409
        ],
        [
          -100.067797,
          -100.465296,
          61.712602
        ],
        [
          -100.067797,
          -98.980966,
          65.480792
        ],
        [
          -100.067797,
          -97.496636,
          69.248984
        ],
        [
          -100.067797,
          -96.012306,
          73.017173
        ],
        [
          -100.067797,
          -94.527976,
          76.785365
        ],
        [
          -100.067797,
          -93.043646,
          80.553557
        ],
        [
          -100.067797,
          -91.559316,
          84.321746
        ],
        [
          -100.067797,
          -90.074986,
          88.089938
        ],
        [
          -100.067797,
          -88.590656,
          91.85813
        ],
        [
          -100.067797,
          -87.106326,
          95.626323
        ],
        [
          -100.067797,
          -85.621996,
          99.394515
        ],
        [
          -100.067797,
          -84.137666,
          103.162703
        ],
        [
          -100.067797,
          -82.653337,
          106.930892
        ],
        [
          -100.067797,
          -81.169007,
          110.699088
        ],
        [
          -100.067797,
          -79.684677,
          114.467277
        ],
        [
          -100.067797,
          -78.200346,
          118.235465
        ]
      ],
      "InstanceCreationTime": [
        "180144.890000",
        "180145.781000",
        "180144.937000",
        "180145.796000",
        "180144.937000",
        "180145.796000",
        "180144.937000",
        "180145.796000",
        "180144.953000",
        "180145.812000",
        "180144.953000",
        "180145.812000",
        "180144.953000",
        "180145.812000",
        "180144.968000",
        "180145.828000",
        "180145.000000",
        "180145.843000",
        "180145.031000",
        "180145.843000",
        "180145.031000",
        "180145.843000",
        "180145.031000",
        "180145.859000",
        "180145.046000",
        "180145.859000",
        "180145.046000",
        "180145.859000",
        "180145.062000",
        "180145.875000",
        "180145.765000",
        "180145.921000",
        "180145.781000"
      ],
      "InstanceNumber": [
        1,
        2,
        3,
        4,
        5,
        6,
        7,
        8,
        9,
        10,
        11,
        12,
        13,
        14,
        15,
        16,
        17,
        18,
        19,
        20,
        21,
        22,
        23,
        24,
        25,
        26,
        27,
        28,
        29,
        30,
        31,
        32,
        33
      ],
      "LargestImagePixelValue": [
        4091,
        4094,
        4090,
        4092,
        4093,
        4086,
        4094,
        4094,
        4088,
        4081,
        4089,
        4071,
        4093,
        4089,
        4090,
        4091,
        4093,
        4089,
        4094,
        4081,
        4094,
        4090,
        4089,
        4094,
        4094,
        4092,
        4093,
        4094,
        4091,
        4094,
        4094,
        4093,
        4092
      ],
      "SliceLocation": [
        -48.252169,
        -44.202168,
        -40.152167,
        -36.102168,
        -32.052169,
        -28.002168,
        -23.952168,
        -19.902168,
        -15.852168,
        -11.802168,
        -7.752168,
        -3.702168,
        0.347832,
        4.397832,
        8.447832,
        12.497832,
        16.547831,
        20.597833,
        24.647832,
        28.697833,
        32.74783,
        36.797832,
        40.847833,
        44.89783,
        48.947831,
        52.997832,
        57.047833,
        61.097834,
        65.147832,
        69.197829,
        73.247834,
        77.297831,
        81.347829
      ],
      "SmallestImagePixelValue": [
        3,
        0,
        2,
        3,
        6,
        3,
        5,
        10,
        4,
        25,
        2,
        11,
        4,
        1,
        18,
        12,
        10,
        0,
        3,
        4,
        1,
        5,
        0,
        1,
        1,
        9,
        4,
        0,
        1,
        0,
        0,
        2,
        2
      ],
      "WindowCenter": [
        -150.0,
        -178.0,
        -190.0,
        -170.0,
        -198.0,
        -298.0,
        -288.0,
        -252.0,
        -212.0,
        -304.0,
        -256.0,
        -228.0,
        -190.0,
        -174.0,
        -168.0,
        -134.0,
        -124.0,
        -120.0,
        -92.0,
        -86.0,
        -80.0,
        -64.0,
        -96.0,
        -118.0,
        -100.0,
        -162.0,
        -122.0,
        -140.0,
        -146.0,
        -160.0,
        -210.0,
        -304.0,
        -300.0
      ],
      "WindowWidth": [
        6288.0,
        6168.0,
        6174.0,
        6076.0,
        5960.0,
        5972.0,
        5616.0,
        5044.0,
        5042.0,
        4516.0,
        4430.0,
        4386.0,
        4352.0,
        4334.0,
        4328.0,
        4336.0,
        4328.0,
        4350.0,
        4346.0,
        4360.0,
        4360.0,
        4336.0,
        4394.0,
        4434.0,
        4432.0,
        4542.0,
        4532.0,
        4632.0,
        4660.0,
        4716.0,
        4746.0,
        4834.0,
        4908.0
      ]
    }
  }
}
