{
  "AcquisitionMatrixPE": 64,
  "AcquisitionNumber": 1,
  "AcquisitionTime": "10:42:26.615000",
  "BandwidthPerPixelPhaseEncode": 30.637,
  "BaseResolution": 64,
  "BidsGuess": [
    "func",
    "_acq-epfid2_dir-AP_run-10_bold"
],
  "CoilCombinationMethod": "Sum of Squares",
  "CoilString": "C:HEA;HEP",
  "ConversionSoftware": "dcm2niix",
  "ConversionSoftwareVersion": "v1.0.20240202",
  "DerivedVendorReportedEchoSpacing": 0.000510004,
  "DeviceSerialNumber": "35119",
  "DwellTime": 3.5e-06,
  "EchoTime": 0.03,
  "EffectiveEchoSpacing": 0.000510004,
  "FlipAngle": 78,
  "HeudiconvVersion": "1.1.6",
  "ImageComments": "V",
  "ImageOrientationPatientDICOM": [0.998299, 0.013034, 0.056827, 0, 0.974691, -0.223556],
  "ImageOrientationText": "Tra>Cor(-12.9)>Sag(3.3)",
  "ImageType": [
    "ORIGINAL",
    "PRIMARY",
    "M",
    "ND",
    "MOSAIC"
],
  "ImagingFrequency": 123.251949,
  "InPlanePhaseEncodingDirectionDICOM": "COL",
  "InstitutionAddress": "Chaucer Road  15,Cambridge,UK,GB,CB2 2EF",
  "InstitutionName": "MRC-CBU",
  "MRAcquisitionType": "2D",
  "MagneticFieldStrength": 3,
  "Manufacturer": "Siemens",
  "ManufacturersModelName": "TrioTim",
  "MatrixCoilMode": "SENSE",
  "Modality": "MR",
  "NonlinearGradientCorrection": false,
  "PartialFourier": 1,
  "PatientPosition": "HFS",
  "PercentPhaseFOV": 100,
  "PercentSampling": 100,
  "PhaseEncodingDirection": "j-",
  "PhaseEncodingSteps": 64,
  "PhaseResolution": 1,
  "PixelBandwidth": 2230,
  "ProcedureStepDescription": "CBU^Neuroimaging",
  "ProtocolName": "CBU_DWEPI_BOLD210",
  "PulseSequenceDetails": "%SiemensSeq%\\ep2d_bold",
  "ReceiveCoilName": "HeadMatrix",
  "ReconMatrixPE": 64,
  "RepetitionTime": 2,
  "SAR": 0.122885,
  "ScanOptions": "FS",
  "ScanningSequence": "EP",
  "SequenceName": "*epfid2d1_64",
  "SequenceVariant": "SK",
  "SeriesDescription": "CBU_DWEPI_BOLD210",
  "SeriesNumber": 10,
  "ShimSetting": [-7762, -8717, -2302, 927, 347, 526, 435, -106],
  "SliceThickness": 3,
  "SliceTiming": [0, 1.035, 0.0625, 1.095, 0.1225, 1.1575, 0.1825, 1.2175, 0.245, 1.2775, 0.305, 1.34, 0.365, 1.4, 0.4275, 1.46, 0.4875, 1.5225, 0.5475, 1.5825, 0.61, 1.6425, 0.67, 1.705, 0.73, 1.765, 0.7925, 1.825, 0.8525, 1.8875, 0.9125, 1.9475, 0.975],
  "SoftwareVersions": "syngo MR B15",
  "SpacingBetweenSlices": 3.9,
  "StationName": "MRC35119",
  "TaskName": "faceprocessing",
  "TotalReadoutTime": 0.0321303,
  "TxRefAmp": 318.558,
  "dcmmeta_affine": [
    [-2.99489688873291, 0.0, 0.22738011181354523, 96.9637222290039],
    [-0.03910199925303459, 2.9240729808807373, -0.8703853487968445, -67.60459899902344],
    [0.17048099637031555, 0.6706680059432983, 3.7948288917541504, -64.70323944091797],
    [0.0, 0.0, 0.0, 1.0]
],
  "dcmmeta_reorient_transform": [
    [0.0, -1.0, 0.0, 63.0],
    [1.0, 0.0, 0.0, 0.0],
    [0.0, 0.0, 1.0, 0.0],
    [0.0, 0.0, 0.0, 1.0]
],
  "dcmmeta_shape": [64, 64, 33, 210],
  "dcmmeta_slice_dim": 2,
  "dcmmeta_version": 0.6,
  "global": {
    "const": {
      "AcquisitionMatrix": [64, 0, 0, 64],
      "AngioFlag": "N",
      "BitsAllocated": 16,
      "BitsStored": 12,
      "Columns": 384,
      "EchoNumbers": 1,
      "EchoTime": 30.0,
      "EchoTrainLength": 1,
      "FlipAngle": 78.0,
      "HighBit": 11,
      "ImageOrientationPatient": [0.998299, 0.013034, 0.056827, 0.0, 0.974691, -0.223556],
      "ImagePositionPatient": [-576.147246, -590.719998, 57.578768],
      "ImageType": [
        "ORIGINAL",
        "PRIMARY",
        "M",
        "ND",
        "MOSAIC"
],
      "ImagedNucleus": "1H",
      "ImagingFrequency": 123.251949,
      "InPlanePhaseEncodingDirection": "COL",
      "MRAcquisitionType": "2D",
      "MagneticFieldStrength": 3.0,
      "Manufacturer": "SIEMENS",
      "ManufacturerModelName": "TrioTim",
      "Modality": "MR",
      "NumberOfAverages": 1.0,
      "NumberOfPhaseEncodingSteps": 64,
      "PercentPhaseFieldOfView": 100.0,
      "PercentSampling": 100.0,
      "PerformedProcedureStepStartTime": "093853.812000",
      "PhotometricInterpretation": "MONOCHROME2",
      "PixelAspectRatio": [1, 1],
      "PixelBandwidth": 2230.0,
      "PixelRepresentation": 0,
      "PixelSpacing": [3.0, 3.0],
      "ProtocolName": "CBU_DWEPI_BOLD210",
      "RepetitionTime": 2000.0,
      "Rows": 384,
      "SAR": 0.122885,
      "SamplesPerPixel": 1,
      "ScanOptions": "FS",
      "ScanningSequence": "EP",
      "SequenceName": "*epfid2d1_64",
      "SequenceVariant": "SK",
      "SeriesDescription": "CBU_DWEPI_BOLD210",
      "SeriesNumber": 10,
      "SeriesTime": "104230.453000",
      "SliceLocation": -42.217141,
      "SliceThickness": 3.0,
      "SmallestImagePixelValue": 0,
      "SoftwareVersions": "syngo MR B15",
      "SpacingBetweenSlices": 3.9,
      "SpecificCharacterSet": "ISO_IR 100",
      "StudyID": "1",
      "StudyTime": "093853.750000",
      "TransmitCoilName": "Body",
      "VariableFlipAngleFlag": "N",
      "WindowCenterWidthExplanation": "Algo1",
      "dBdt": 0.0},
    "slices": {}
  },
  "time": {
    "samples": {
      "AcquisitionNumber": [1, 2, 3, 4, 5, 6, 7, 8, 9, 10, 11, 12, 13, 14, 15, 16, 17, 18, 19, 20, 21, 22, 23, 24, 25, 26, 27, 28, 29, 30, 31, 32, 33, 34, 35, 36, 37, 38, 39, 40, 41, 42, 43, 44, 45, 46, 47, 48, 49, 50, 51, 52, 53, 54, 55, 56, 57, 58, 59, 60, 61, 62, 63, 64, 65, 66, 67, 68, 69, 70, 71, 72, 73, 74, 75, 76, 77, 78, 79, 80, 81, 82, 83, 84, 85, 86, 87, 88, 89, 90, 91, 92, 93, 94, 95, 96, 97, 98, 99, 100, 101, 102, 103, 104, 105, 106, 107, 108, 109, 110, 111, 112, 113, 114, 115, 116, 117, 118, 119, 120, 121, 122, 123, 124, 125, 126, 127, 128, 129, 130, 131, 132, 133, 134, 135, 136, 137, 138, 139, 140, 141, 142, 143, 144, 145, 146, 147, 148, 149, 150, 151, 152, 153, 154, 155, 156, 157, 158, 159, 160, 161, 162, 163, 164, 165, 166, 167, 168, 169, 170, 171, 172, 173, 174, 175, 176, 177, 178, 179, 180, 181, 182, 183, 184, 185, 186, 187, 188, 189, 190, 191, 192, 193, 194, 195, 196, 197, 198, 199, 200, 201, 202, 203, 204, 205, 206, 207, 208, 209, 210],
      "AcquisitionTime": ["104226.615000", "104228.625000", "104230.632500", "104232.640000", "104234.647500", "104236.655000", "104238.665000", "104240.672500", "104242.680000", "104244.687500", "104246.695000", "104248.705000", "104250.712500", "104252.720000", "104254.727500", "104256.737500", "104258.745000", "104300.752500", "104302.760000", "104304.767500", "104306.777500", "104308.785000", "104310.792500", "104312.800000", "104314.807500", "104316.817500", "104318.825000", "104320.832500", "104322.840000", "104324.847500", "104326.857500", "104328.865000", "104330.872500", "104332.880000", "104334.890000", "104336.897500", "104338.905000", "104340.912500", "104342.920000", "104344.930000", "104346.937500", "104348.945000", "104350.952500", "104352.960000", "104354.970000", "104356.977500", "104358.985000", "104400.992500", "104403.002500", "104405.010000", "104407.017500", "104409.025000", "104411.032500", "104413.042500", "104415.050000", "104417.057500", "104419.065000", "104421.072500", "104423.082500", "104425.090000", "104427.097500", "104429.105000", "104431.115000", "104433.122500", "104435.130000", "104437.137500", "104439.145000", "104441.155000", "104443.162500", "104445.170000", "104447.177500", "104449.185000", "104451.195000", "104453.202500", "104455.210000", "104457.217500", "104459.225000", "104501.235000", "104503.242500", "104505.250000", "104507.257500", "104509.267500", "104511.275000", "104513.282500", "104515.290000", "104517.297500", "104519.307500", "104521.315000", "104523.322500", "104525.330000", "104527.337500", "104529.347500", "104531.355000", "104533.362500", "104535.370000", "104537.380000", "104539.387500", "104541.395000", "104543.402500", "104545.410000", "104547.420000", "104549.427500", "104551.435000", "104553.442500", "104555.450000", "104557.460000", "104559.467500", "104601.475000", "104603.482500", "104605.492500", "104607.500000", "104609.507500", "104611.515000", "104613.522500", "104615.532500", "104617.540000", "104619.547500", "104621.555000", "104623.562500", "104625.572500", "104627.580000", "104629.587500", "104631.595000", "104633.602500", "104635.612500", "104637.620000", "104639.627500", "104641.635000", "104643.645000", "104645.652500", "104647.660000", "104649.667500", "104651.675000", "104653.685000", "104655.692500", "104657.700000", "104659.707500", "104701.715000", "104703.725000", "104705.732500", "104707.740000", "104709.747500", "104711.757500", "104713.765000", "104715.772500", "104717.780000", "104719.787500", "104721.797500", "104723.805000", "104725.812500", "104727.820000", "104729.827500", "104731.837500", "104733.845000", "104735.852500", "104737.860000", "104739.870000", "104741.877500", "104743.885000", "104745.892500", "104747.900000", "104749.910000", "104751.917500", "104753.925000", "104755.932500", "104757.940000", "104759.950000", "104801.957500", "104803.965000", "104805.972500", "104807.982500", "104809.990000", "104811.997500", "104814.005000", "104816.012500", "104818.022500", "104820.030000", "104822.037500", "104824.045000", "104826.052500", "104828.062500", "104830.070000", "104832.077500", "104834.085000", "104836.092500", "104838.102500", "104840.110000", "104842.117500", "104844.125000", "104846.135000", "104848.142500", "104850.150000", "104852.157500", "104854.165000", "104856.175000", "104858.182500", "104900.190000", "104902.197500", "104904.205000", "104906.215000", "104908.222500", "104910.230000", "104912.237500", "104914.247500", "104916.255000", "104918.262500", "104920.270000", "104922.277500", "104924.287500", "104926.295000"],
      "ContentTime": ["104230.468000", "104232.453000", "104234.453000", "104236.453000", "104238.453000", "104240.953000", "104242.953000", "104244.453000", "104246.453000", "104248.453000", "104250.453000", "104252.453000", "104254.453000", "104256.453000", "104258.453000", "104300.453000", "104302.453000", "104304.453000", "104306.453000", "104308.453000", "104310.453000", "104312.453000", "104314.453000", "104316.453000", "104318.453000", "104320.453000", "104322.453000", "104324.453000", "104326.453000", "104328.453000", "104330.453000", "104332.453000", "104334.453000", "104336.453000", "104338.453000", "104340.453000", "104342.453000", "104344.453000", "104346.453000", "104348.453000", "104350.453000", "104352.453000", "104354.453000", "104356.453000", "104358.453000", "104400.453000", "104402.453000", "104404.453000", "104406.453000", "104408.453000", "104410.453000", "104412.453000", "104414.453000", "104416.453000", "104418.453000", "104420.453000", "104422.453000", "104424.453000", "104426.453000", "104428.453000", "104430.453000", "104432.453000", "104434.453000", "104436.453000", "104438.453000", "104440.453000", "104442.453000", "104444.953000", "104446.453000", "104448.453000", "104450.453000", "104452.453000", "104454.953000", "104456.453000", "104458.453000", "104500.453000", "104502.453000", "104504.453000", "104506.453000", "104508.453000", "104510.453000", "104512.453000", "104514.453000", "104516.453000", "104518.453000", "104520.453000", "104522.453000", "104524.453000", "104526.453000", "104528.453000", "104530.453000", "104532.453000", "104534.453000", "104536.453000", "104538.453000", "104540.453000", "104542.453000", "104544.453000", "104546.453000", "104548.453000", "104550.453000", "104552.453000", "104554.453000", "104556.453000", "104558.453000", "104600.953000", "104602.453000", "104604.453000", "104606.453000", "104608.453000", "104610.453000", "104612.453000", "104614.953000", "104616.453000", "104618.453000", "104620.953000", "104622.953000", "104624.453000", "104626.453000", "104628.953000", "104630.453000", "104632.453000", "104634.453000", "104636.453000", "104638.453000", "104640.453000", "104642.453000", "104644.453000", "104646.453000", "104648.453000", "104650.453000", "104652.453000", "104654.453000", "104656.453000", "104658.453000", "104700.453000", "104702.453000", "104704.453000", "104706.453000", "104708.453000", "104710.453000", "104712.453000", "104714.453000", "104716.453000", "104718.453000", "104720.453000", "104722.453000", "104724.453000", "104726.453000", "104728.453000", "104730.453000", "104732.453000", "104734.453000", "104736.453000", "104738.453000", "104740.453000", "104742.453000", "104744.453000", "104746.453000", "104748.453000", "104750.453000", "104752.453000", "104754.453000", "104756.453000", "104758.453000", "104800.453000", "104802.453000", "104804.453000", "104806.453000", "104808.453000", "104810.453000", "104812.453000", "104814.453000", "104816.453000", "104818.453000", "104820.453000", "104822.453000", "104824.453000", "104826.453000", "104828.453000", "104830.453000", "104832.953000", "104834.453000", "104836.453000", "104838.453000", "104840.453000", "104842.453000", "104844.453000", "104846.453000", "104848.453000", "104850.453000", "104852.453000", "104854.453000", "104856.453000", "104858.453000", "104900.453000", "104902.453000", "104904.453000", "104906.453000", "104908.453000", "104910.453000", "104912.453000", "104914.453000", "104916.453000", "104918.453000", "104920.453000", "104922.453000", "104924.453000", "104926.453000", "104928.312000"],
      "InstanceCreationTime": ["104230.468000", "104232.453000", "104234.453000", "104236.453000", "104238.453000", "104240.953000", "104242.953000", "104244.453000", "104246.453000", "104248.453000", "104250.453000", "104252.453000", "104254.453000", "104256.453000", "104258.453000", "104300.453000", "104302.453000", "104304.453000", "104306.453000", "104308.453000", "104310.453000", "104312.453000", "104314.453000", "104316.453000", "104318.453000", "104320.453000", "104322.453000", "104324.453000", "104326.453000", "104328.453000", "104330.453000", "104332.453000", "104334.453000", "104336.453000", "104338.453000", "104340.453000", "104342.453000", "104344.453000", "104346.453000", "104348.453000", "104350.453000", "104352.453000", "104354.453000", "104356.453000", "104358.453000", "104400.453000", "104402.453000", "104404.453000", "104406.453000", "104408.453000", "104410.453000", "104412.453000", "104414.453000", "104416.453000", "104418.453000", "104420.453000", "104422.453000", "104424.453000", "104426.453000", "104428.453000", "104430.453000", "104432.453000", "104434.453000", "104436.453000", "104438.453000", "104440.453000", "104442.453000", "104444.953000", "104446.453000", "104448.453000", "104450.453000", "104452.453000", "104454.953000", "104456.453000", "104458.453000", "104500.453000", "104502.453000", "104504.453000", "104506.453000", "104508.453000", "104510.453000", "104512.453000", "104514.453000", "104516.453000", "104518.453000", "104520.453000", "104522.453000", "104524.453000", "104526.453000", "104528.453000", "104530.453000", "104532.453000", "104534.453000", "104536.453000", "104538.453000", "104540.453000", "104542.453000", "104544.453000", "104546.453000", "104548.453000", "104550.453000", "104552.453000", "104554.453000", "104556.453000", "104558.453000", "104600.953000", "104602.453000", "104604.453000", "104606.453000", "104608.453000", "104610.453000", "104612.453000", "104614.953000", "104616.453000", "104618.453000", "104620.953000", "104622.953000", "104624.453000", "104626.453000", "104628.953000", "104630.453000", "104632.453000", "104634.453000", "104636.453000", "104638.453000", "104640.453000", "104642.453000", "104644.453000", "104646.453000", "104648.453000", "104650.453000", "104652.453000", "104654.453000", "104656.453000", "104658.453000", "104700.453000", "104702.453000", "104704.453000", "104706.453000", "104708.453000", "104710.453000", "104712.453000", "104714.453000", "104716.453000", "104718.453000", "104720.453000", "104722.453000", "104724.453000", "104726.453000", "104728.453000", "104730.453000", "104732.453000", "104734.453000", "104736.453000", "104738.453000", "104740.453000", "104742.453000", "104744.453000", "104746.453000", "104748.453000", "104750.453000", "104752.453000", "104754.453000", "104756.453000", "104758.453000", "104800.453000", "104802.453000", "104804.453000", "104806.453000", "104808.453000", "104810.453000", "104812.453000", "104814.453000", "104816.453000", "104818.453000", "104820.453000", "104822.453000", "104824.453000", "104826.453000", "104828.453000", "104830.453000", "104832.953000", "104834.453000", "104836.453000", "104838.453000", "104840.453000", "104842.453000", "104844.453000", "104846.453000", "104848.453000", "104850.453000", "104852.453000", "104854.453000", "104856.453000", "104858.453000", "104900.453000", "104902.453000", "104904.453000", "104906.453000", "104908.453000", "104910.453000", "104912.453000", "104914.453000", "104916.453000", "104918.453000", "104920.453000", "104922.453000", "104924.453000", "104926.453000", "104928.312000"],
      "InstanceNumber": [1, 2, 3, 4, 5, 6, 7, 8, 9, 10, 11, 12, 13, 14, 15, 16, 17, 18, 19, 20, 21, 22, 23, 24, 25, 26, 27, 28, 29, 30, 31, 32, 33, 34, 35, 36, 37, 38, 39, 40, 41, 42, 43, 44, 45, 46, 47, 48, 49, 50, 51, 52, 53, 54, 55, 56, 57, 58, 59, 60, 61, 62, 63, 64, 65, 66, 67, 68, 69, 70, 71, 72, 73, 74, 75, 76, 77, 78, 79, 80, 81, 82, 83, 84, 85, 86, 87, 88, 89, 90, 91, 92, 93, 94, 95, 96, 97, 98, 99, 100, 101, 102, 103, 104, 105, 106, 107, 108, 109, 110, 111, 112, 113, 114, 115, 116, 117, 118, 119, 120, 121, 122, 123, 124, 125, 126, 127, 128, 129, 130, 131, 132, 133, 134, 135, 136, 137, 138, 139, 140, 141, 142, 143, 144, 145, 146, 147, 148, 149, 150, 151, 152, 153, 154, 155, 156, 157, 158, 159, 160, 161, 162, 163, 164, 165, 166, 167, 168, 169, 170, 171, 172, 173, 174, 175, 176, 177, 178, 179, 180, 181, 182, 183, 184, 185, 186, 187, 188, 189, 190, 191, 192, 193, 194, 195, 196, 197, 198, 199, 200, 201, 202, 203, 204, 205, 206, 207, 208, 209, 210],
      "LargestImagePixelValue": [2021, 1925, 1923, 1926, 1919, 1899, 1909, 1893, 1908, 1930, 1917, 1928, 1892, 1925, 1912, 1970, 1939, 1926, 1935, 1905, 1902, 1934, 1954, 2044, 1915, 1910, 1916, 1910, 1901, 1921, 1907, 1921, 1937, 1917, 1916, 1922, 1932, 1912, 1910, 1904, 1933, 1916, 1894, 1916, 1933, 1936, 1929, 1924, 1945, 1957, 1943, 1932, 1942, 1994, 1963, 1933, 1931, 1946, 1956, 1960, 1936, 1959, 1948, 1941, 1923, 1945, 1928, 1921, 1933, 1947, 1933, 1986, 1946, 1971, 1928, 1925, 1934, 1951, 1933, 1929, 1924, 1938, 1927, 1938, 1930, 1931, 1927, 1955, 1941, 1947, 1935, 1933, 1919, 1923, 1932, 1919, 1913, 1936, 1949, 1944, 1926, 1910, 1908, 1913, 1909, 1924, 1901, 1925, 1914, 1931, 1936, 1944, 1943, 1920, 1920, 1926, 1916, 1906, 1911, 1903, 1911, 1938, 1929, 1929, 1916, 1922, 1913, 1910, 1920, 1917, 1913, 1923, 1939, 1938, 1929, 1935, 1935, 2011, 1903, 1914, 1888, 1877, 1896, 1881, 1908, 1897, 1898, 1917, 1910, 1915, 1918, 1916, 1887, 1904, 1879, 1892, 1903, 1899, 1905, 1906, 1927, 1901, 1927, 1914, 1895, 1918, 1912, 1922, 1935, 1909, 1901, 1903, 1912, 1902, 1917, 1907, 2049, 1905, 1926, 1900, 1887, 1969, 1873, 1885, 1891, 1889, 1879, 1890, 1900, 1883, 1887, 2044, 1890, 1912, 1884, 1893, 1897, 1896, 1896, 1883, 1889, 1885, 1908, 1881, 1871, 1835, 1831, 1882, 1879, 1909],
      "WindowCenter": [751.0, 749.0, 748.0, 748.0, 749.0, 749.0, 748.0, 748.0, 748.0, 750.0, 750.0, 752.0, 754.0, 755.0, 755.0, 756.0, 755.0, 753.0, 752.0, 751.0, 751.0, 751.0, 751.0, 751.0, 750.0, 749.0, 750.0, 750.0, 750.0, 749.0, 749.0, 749.0, 750.0, 749.0, 749.0, 749.0, 749.0, 749.0, 749.0, 749.0, 750.0, 751.0, 752.0, 753.0, 752.0, 751.0, 750.0, 748.0, 747.0, 748.0, 749.0, 750.0, 750.0, 750.0, 751.0, 751.0, 750.0, 749.0, 750.0, 751.0, 751.0, 751.0, 752.0, 752.0, 751.0, 751.0, 751.0, 752.0, 753.0, 753.0, 754.0, 756.0, 756.0, 755.0, 752.0, 750.0, 749.0, 750.0, 750.0, 750.0, 751.0, 751.0, 750.0, 751.0, 752.0, 752.0, 752.0, 752.0, 751.0, 751.0, 750.0, 749.0, 749.0, 749.0, 749.0, 750.0, 751.0, 752.0, 753.0, 752.0, 752.0, 751.0, 749.0, 748.0, 748.0, 749.0, 751.0, 751.0, 752.0, 753.0, 753.0, 754.0, 753.0, 753.0, 753.0, 753.0, 753.0, 752.0, 751.0, 752.0, 753.0, 753.0, 751.0, 750.0, 750.0, 750.0, 749.0, 749.0, 749.0, 750.0, 752.0, 753.0, 753.0, 753.0, 752.0, 753.0, 752.0, 752.0, 752.0, 752.0, 752.0, 752.0, 752.0, 754.0, 755.0, 756.0, 755.0, 754.0, 752.0, 751.0, 750.0, 751.0, 749.0, 749.0, 749.0, 749.0, 750.0, 750.0, 751.0, 752.0, 752.0, 752.0, 752.0, 752.0, 752.0, 750.0, 750.0, 752.0, 753.0, 753.0, 751.0, 751.0, 750.0, 750.0, 750.0, 749.0, 749.0, 750.0, 752.0, 752.0, 750.0, 750.0, 750.0, 750.0, 750.0, 750.0, 750.0, 753.0, 756.0, 756.0, 755.0, 754.0, 751.0, 749.0, 748.0, 748.0, 749.0, 750.0, 751.0, 751.0, 751.0, 751.0, 752.0, 753.0, 753.0, 753.0, 752.0, 755.0, 758.0, 756.0],
      "WindowWidth": [1600.0, 1594.0, 1592.0, 1591.0, 1595.0, 1594.0, 1591.0, 1590.0, 1593.0, 1597.0, 1598.0, 1601.0, 1606.0, 1610.0, 1610.0, 1611.0, 1609.0, 1603.0, 1601.0, 1600.0, 1599.0, 1599.0, 1598.0, 1598.0, 1596.0, 1595.0, 1597.0, 1598.0, 1596.0, 1594.0, 1595.0, 1595.0, 1596.0, 1595.0, 1594.0, 1593.0, 1595.0, 1594.0, 1595.0, 1594.0, 1596.0, 1599.0, 1601.0, 1603.0, 1602.0, 1599.0, 1598.0, 1592.0, 1589.0, 1592.0, 1594.0, 1596.0, 1596.0, 1598.0, 1601.0, 1599.0, 1595.0, 1595.0, 1598.0, 1599.0, 1598.0, 1598.0, 1601.0, 1601.0, 1600.0, 1599.0, 1600.0, 1603.0, 1604.0, 1603.0, 1607.0, 1612.0, 1612.0, 1610.0, 1602.0, 1596.0, 1595.0, 1596.0, 1597.0, 1597.0, 1599.0, 1598.0, 1596.0, 1599.0, 1602.0, 1603.0, 1601.0, 1601.0, 1599.0, 1599.0, 1596.0, 1594.0, 1593.0, 1593.0, 1594.0, 1597.0, 1598.0, 1603.0, 1603.0, 1603.0, 1602.0, 1599.0, 1594.0, 1591.0, 1592.0, 1594.0, 1599.0, 1600.0, 1602.0, 1603.0, 1603.0, 1606.0, 1605.0, 1605.0, 1604.0, 1605.0, 1603.0, 1602.0, 1600.0, 1602.0, 1605.0, 1603.0, 1600.0, 1596.0, 1595.0, 1596.0, 1595.0, 1595.0, 1595.0, 1597.0, 1601.0, 1605.0, 1606.0, 1603.0, 1601.0, 1604.0, 1603.0, 1603.0, 1601.0, 1603.0, 1601.0, 1601.0, 1603.0, 1607.0, 1611.0, 1611.0, 1610.0, 1608.0, 1601.0, 1598.0, 1598.0, 1598.0, 1594.0, 1594.0, 1594.0, 1595.0, 1596.0, 1596.0, 1600.0, 1602.0, 1603.0, 1602.0, 1601.0, 1603.0, 1601.0, 1597.0, 1598.0, 1603.0, 1605.0, 1604.0, 1600.0, 1599.0, 1596.0, 1596.0, 1596.0, 1595.0, 1595.0, 1598.0, 1602.0, 1601.0, 1597.0, 1597.0, 1595.0, 1596.0, 1597.0, 1597.0, 1598.0, 1604.0, 1612.0, 1612.0, 1609.0, 1607.0, 1599.0, 1594.0, 1591.0, 1592.0, 1594.0, 1596.0, 1599.0, 1599.0, 1600.0, 1600.0, 1602.0, 1603.0, 1603.0, 1604.0, 1603.0, 1610.0, 1617.0, 1613.0]
    },
    "slices": {}
  }
}