{
  "AcquisitionMatrixPE": 64,
  "AcquisitionNumber": 1,
  "AcquisitionTime": "10:27:17.200000",
  "BandwidthPerPixelPhaseEncode": 30.637,
  "BaseResolution": 64,
  "BidsGuess": [
    "func",
    "_acq-epfid2_dir-AP_run-8_bold"
],
  "CoilCombinationMethod": "Sum of Squares",
  "CoilString": "C:HEA;HEP",
  "ConversionSoftware": "dcm2niix",
  "ConversionSoftwareVersion": "v1.0.20240202",
  "DerivedVendorReportedEchoSpacing": 0.000510004,
  "DeviceSerialNumber": "35119",
  "DwellTime": 3.5e-06,
  "EchoTime": 0.03,
  "EffectiveEchoSpacing": 0.000510004,
  "FlipAngle": 78,
  "HeudiconvVersion": "1.1.6",
  "ImageComments": "V",
  "ImageOrientationPatientDICOM": [0.998299, 0.013034, 0.056827, 0, 0.974691, -0.223556],
  "ImageOrientationText": "Tra>Cor(-12.9)>Sag(3.3)",
  "ImageType": [
    "ORIGINAL",
    "PRIMARY",
    "M",
    "ND",
    "MOSAIC"
],
  "ImagingFrequency": 123.251949,
  "InPlanePhaseEncodingDirectionDICOM": "COL",
  "InstitutionAddress": "Chaucer Road  15,Cambridge,UK,GB,CB2 2EF",
  "InstitutionName": "MRC-CBU",
  "MRAcquisitionType": "2D",
  "MagneticFieldStrength": 3,
  "Manufacturer": "Siemens",
  "ManufacturersModelName": "TrioTim",
  "MatrixCoilMode": "SENSE",
  "Modality": "MR",
  "NonlinearGradientCorrection": false,
  "PartialFourier": 1,
  "PatientPosition": "HFS",
  "PercentPhaseFOV": 100,
  "PercentSampling": 100,
  "PhaseEncodingDirection": "j-",
  "PhaseEncodingSteps": 64,
  "PhaseResolution": 1,
  "PixelBandwidth": 2230,
  "ProcedureStepDescription": "CBU^Neuroimaging",
  "ProtocolName": "CBU_DWEPI_BOLD210",
  "PulseSequenceDetails": "%SiemensSeq%\\ep2d_bold",
  "ReceiveCoilName": "HeadMatrix",
  "ReconMatrixPE": 64,
  "RepetitionTime": 2,
  "SAR": 0.122885,
  "ScanOptions": "FS",
  "ScanningSequence": "EP",
  "SequenceName": "*epfid2d1_64",
  "SequenceVariant": "SK",
  "SeriesDescription": "CBU_DWEPI_BOLD210",
  "SeriesNumber": 8,
  "ShimSetting": [-7762, -8717, -2302, 927, 347, 526, 435, -106],
  "SliceThickness": 3,
  "SliceTiming": [0, 1.035, 0.0625, 1.095, 0.1225, 1.1575, 0.1825, 1.2175, 0.245, 1.2775, 0.305, 1.34, 0.365, 1.4, 0.4275, 1.46, 0.4875, 1.5225, 0.5475, 1.5825, 0.61, 1.6425, 0.67, 1.705, 0.73, 1.765, 0.7925, 1.825, 0.8525, 1.8875, 0.9125, 1.9475, 0.975],
  "SoftwareVersions": "syngo MR B15",
  "SpacingBetweenSlices": 3.9,
  "StationName": "MRC35119",
  "TaskName": "faceprocessing",
  "TotalReadoutTime": 0.0321303,
  "TxRefAmp": 318.558,
  "dcmmeta_affine": [
    [-2.99489688873291, 0.0, 0.22738011181354523, 96.9637222290039],
    [-0.03910199925303459, 2.9240729808807373, -0.8703853487968445, -67.60459899902344],
    [0.17048099637031555, 0.6706680059432983, 3.7948288917541504, -64.70323944091797],
    [0.0, 0.0, 0.0, 1.0]
],
  "dcmmeta_reorient_transform": [
    [0.0, -1.0, 0.0, 63.0],
    [1.0, 0.0, 0.0, 0.0],
    [0.0, 0.0, 1.0, 0.0],
    [0.0, 0.0, 0.0, 1.0]
],
  "dcmmeta_shape": [64, 64, 33, 210],
  "dcmmeta_slice_dim": 2,
  "dcmmeta_version": 0.6,
  "global": {
    "const": {
      "AcquisitionMatrix": [64, 0, 0, 64],
      "AngioFlag": "N",
      "BitsAllocated": 16,
      "BitsStored": 12,
      "Columns": 384,
      "EchoNumbers": 1,
      "EchoTime": 30.0,
      "EchoTrainLength": 1,
      "FlipAngle": 78.0,
      "HighBit": 11,
      "ImageOrientationPatient": [0.998299, 0.013034, 0.056827, 0.0, 0.974691, -0.223556],
      "ImagePositionPatient": [-576.147246, -590.719998, 57.578768],
      "ImageType": [
        "ORIGINAL",
        "PRIMARY",
        "M",
        "ND",
        "MOSAIC"
],
      "ImagedNucleus": "1H",
      "ImagingFrequency": 123.251949,
      "InPlanePhaseEncodingDirection": "COL",
      "MRAcquisitionType": "2D",
      "MagneticFieldStrength": 3.0,
      "Manufacturer": "SIEMENS",
      "ManufacturerModelName": "TrioTim",
      "Modality": "MR",
      "NumberOfAverages": 1.0,
      "NumberOfPhaseEncodingSteps": 64,
      "PercentPhaseFieldOfView": 100.0,
      "PercentSampling": 100.0,
      "PerformedProcedureStepStartTime": "093853.812000",
      "PhotometricInterpretation": "MONOCHROME2",
      "PixelAspectRatio": [1, 1],
      "PixelBandwidth": 2230.0,
      "PixelRepresentation": 0,
      "PixelSpacing": [3.0, 3.0],
      "ProtocolName": "CBU_DWEPI_BOLD210",
      "RepetitionTime": 2000.0,
      "Rows": 384,
      "SAR": 0.122885,
      "SamplesPerPixel": 1,
      "ScanOptions": "FS",
      "ScanningSequence": "EP",
      "SequenceName": "*epfid2d1_64",
      "SequenceVariant": "SK",
      "SeriesDescription": "CBU_DWEPI_BOLD210",
      "SeriesNumber": 8,
      "SeriesTime": "102720.578000",
      "SliceLocation": -42.217141,
      "SliceThickness": 3.0,
      "SmallestImagePixelValue": 0,
      "SoftwareVersions": "syngo MR B15",
      "SpacingBetweenSlices": 3.9,
      "SpecificCharacterSet": "ISO_IR 100",
      "StudyID": "1",
      "StudyTime": "093853.750000",
      "TransmitCoilName": "Body",
      "VariableFlipAngleFlag": "N",
      "WindowCenterWidthExplanation": "Algo1",
      "dBdt": 0.0},
    "slices": {}
  },
  "time": {
    "samples": {
      "AcquisitionNumber": [1, 2, 3, 4, 5, 6, 7, 8, 9, 10, 11, 12, 13, 14, 15, 16, 17, 18, 19, 20, 21, 22, 23, 24, 25, 26, 27, 28, 29, 30, 31, 32, 33, 34, 35, 36, 37, 38, 39, 40, 41, 42, 43, 44, 45, 46, 47, 48, 49, 50, 51, 52, 53, 54, 55, 56, 57, 58, 59, 60, 61, 62, 63, 64, 65, 66, 67, 68, 69, 70, 71, 72, 73, 74, 75, 76, 77, 78, 79, 80, 81, 82, 83, 84, 85, 86, 87, 88, 89, 90, 91, 92, 93, 94, 95, 96, 97, 98, 99, 100, 101, 102, 103, 104, 105, 106, 107, 108, 109, 110, 111, 112, 113, 114, 115, 116, 117, 118, 119, 120, 121, 122, 123, 124, 125, 126, 127, 128, 129, 130, 131, 132, 133, 134, 135, 136, 137, 138, 139, 140, 141, 142, 143, 144, 145, 146, 147, 148, 149, 150, 151, 152, 153, 154, 155, 156, 157, 158, 159, 160, 161, 162, 163, 164, 165, 166, 167, 168, 169, 170, 171, 172, 173, 174, 175, 176, 177, 178, 179, 180, 181, 182, 183, 184, 185, 186, 187, 188, 189, 190, 191, 192, 193, 194, 195, 196, 197, 198, 199, 200, 201, 202, 203, 204, 205, 206, 207, 208, 209, 210],
      "AcquisitionTime": ["102717.200000", "102719.210000", "102721.217500", "102723.225000", "102725.232500", "102727.240000", "102729.250000", "102731.257500", "102733.265000", "102735.272500", "102737.282500", "102739.290000", "102741.297500", "102743.305000", "102745.312500", "102747.322500", "102749.330000", "102751.337500", "102753.345000", "102755.352500", "102757.362500", "102759.370000", "102801.377500", "102803.385000", "102805.395000", "102807.402500", "102809.410000", "102811.417500", "102813.425000", "102815.435000", "102817.442500", "102819.450000", "102821.457500", "102823.465000", "102825.475000", "102827.482500", "102829.490000", "102831.497500", "102833.505000", "102835.515000", "102837.522500", "102839.530000", "102841.537500", "102843.547500", "102845.555000", "102847.562500", "102849.570000", "102851.577500", "102853.587500", "102855.595000", "102857.602500", "102859.610000", "102901.617500", "102903.627500", "102905.635000", "102907.642500", "102909.650000", "102911.660000", "102913.667500", "102915.675000", "102917.682500", "102919.690000", "102921.700000", "102923.707500", "102925.715000", "102927.722500", "102929.730000", "102931.740000", "102933.747500", "102935.755000", "102937.762500", "102939.772500", "102941.780000", "102943.787500", "102945.795000", "102947.802500", "102949.812500", "102951.820000", "102953.827500", "102955.835000", "102957.842500", "102959.852500", "103001.860000", "103003.867500", "103005.875000", "103007.882500", "103009.892500", "103011.900000", "103013.907500", "103015.915000", "103017.925000", "103019.932500", "103021.940000", "103023.947500", "103025.955000", "103027.965000", "103029.972500", "103031.980000", "103033.987500", "103035.995000", "103038.005000", "103040.012500", "103042.020000", "103044.027500", "103046.037500", "103048.045000", "103050.052500", "103052.060000", "103054.067500", "103056.077500", "103058.085000", "103100.092500", "103102.100000", "103104.107500", "103106.117500", "103108.125000", "103110.132500", "103112.140000", "103114.150000", "103116.157500", "103118.165000", "103120.172500", "103122.180000", "103124.190000", "103126.197500", "103128.205000", "103130.212500", "103132.220000", "103134.230000", "103136.237500", "103138.245000", "103140.252500", "103142.260000", "103144.270000", "103146.277500", "103148.285000", "103150.292500", "103152.302500", "103154.310000", "103156.317500", "103158.325000", "103200.332500", "103202.342500", "103204.350000", "103206.357500", "103208.365000", "103210.372500", "103212.382500", "103214.390000", "103216.397500", "103218.405000", "103220.415000", "103222.422500", "103224.430000", "103226.437500", "103228.445000", "103230.455000", "103232.462500", "103234.470000", "103236.477500", "103238.485000", "103240.495000", "103242.502500", "103244.510000", "103246.517500", "103248.527500", "103250.535000", "103252.542500", "103254.550000", "103256.557500", "103258.567500", "103300.575000", "103302.582500", "103304.590000", "103306.597500", "103308.607500", "103310.615000", "103312.622500", "103314.630000", "103316.637500", "103318.647500", "103320.655000", "103322.662500", "103324.670000", "103326.680000", "103328.687500", "103330.695000", "103332.702500", "103334.710000", "103336.720000", "103338.727500", "103340.735000", "103342.742500", "103344.750000", "103346.760000", "103348.767500", "103350.775000", "103352.782500", "103354.792500", "103356.800000", "103358.807500", "103400.815000", "103402.822500", "103404.832500", "103406.840000", "103408.847500", "103410.855000", "103412.862500", "103414.872500", "103416.880000"],
      "ContentTime": ["102720.593000", "102722.578000", "102724.578000", "102726.578000", "102728.578000", "102730.578000", "102732.578000", "102734.578000", "102736.578000", "102738.578000", "102740.578000", "102742.578000", "102744.578000", "102746.578000", "102748.578000", "102750.578000", "102752.578000", "102754.578000", "102756.578000", "102758.578000", "102800.578000", "102802.578000", "102804.578000", "102806.578000", "102808.578000", "102810.578000", "102812.578000", "102814.578000", "102816.578000", "102818.593000", "102820.578000", "102822.578000", "102824.578000", "102826.578000", "102828.578000", "102830.578000", "102832.578000", "102834.578000", "102836.578000", "102838.578000", "102840.578000", "102842.578000", "102844.578000", "102846.578000", "102848.578000", "102851.078000", "102852.578000", "102854.578000", "102856.578000", "102858.578000", "102900.578000", "102902.578000", "102904.578000", "102906.578000", "102908.578000", "102910.578000", "102912.578000", "102914.578000", "102916.578000", "102918.578000", "102920.578000", "102922.578000", "102924.578000", "102926.578000", "102928.578000", "102930.578000", "102932.578000", "102934.578000", "102936.578000", "102938.578000", "102940.578000", "102942.578000", "102944.578000", "102946.578000", "102948.578000", "102950.578000", "102952.578000", "102955.078000", "102956.578000", "102958.578000", "103000.578000", "103003.078000", "103004.578000", "103006.578000", "103008.578000", "103010.578000", "103012.578000", "103014.578000", "103016.578000", "103018.578000", "103020.578000", "103022.578000", "103024.578000", "103026.578000", "103028.578000", "103030.578000", "103032.578000", "103034.578000", "103036.578000", "103038.578000", "103040.578000", "103042.578000", "103044.578000", "103046.578000", "103048.578000", "103050.578000", "103052.578000", "103054.578000", "103056.578000", "103058.578000", "103100.578000", "103102.578000", "103104.578000", "103106.578000", "103108.578000", "103110.578000", "103112.578000", "103114.578000", "103116.578000", "103119.078000", "103120.578000", "103122.578000", "103124.578000", "103126.578000", "103128.578000", "103130.578000", "103132.578000", "103135.078000", "103136.578000", "103138.578000", "103140.578000", "103142.578000", "103144.578000", "103146.578000", "103149.078000", "103150.578000", "103152.578000", "103154.578000", "103157.078000", "103158.578000", "103200.578000", "103202.578000", "103204.578000", "103206.578000", "103208.578000", "103210.578000", "103212.578000", "103214.578000", "103216.578000", "103218.578000", "103220.578000", "103222.578000", "103224.578000", "103226.578000", "103228.578000", "103230.578000", "103232.578000", "103234.578000", "103236.578000", "103238.578000", "103240.578000", "103242.578000", "103244.578000", "103246.578000", "103248.578000", "103251.078000", "103252.578000", "103254.578000", "103256.578000", "103258.578000", "103300.578000", "103302.578000", "103304.578000", "103306.578000", "103308.578000", "103310.578000", "103312.578000", "103314.578000", "103316.578000", "103318.578000", "103320.578000", "103322.578000", "103324.578000", "103326.578000", "103328.578000", "103330.578000", "103332.578000", "103334.578000", "103336.578000", "103338.578000", "103340.578000", "103342.578000", "103344.578000", "103346.578000", "103348.578000", "103350.578000", "103352.578000", "103354.578000", "103356.578000", "103358.578000", "103400.578000", "103402.578000", "103404.578000", "103406.578000", "103408.578000", "103410.578000", "103412.578000", "103414.578000", "103416.578000", "103418.406000"],
      "InstanceCreationTime": ["102720.593000", "102722.578000", "102724.578000", "102726.578000", "102728.578000", "102730.578000", "102732.578000", "102734.578000", "102736.578000", "102738.578000", "102740.578000", "102742.578000", "102744.578000", "102746.578000", "102748.578000", "102750.578000", "102752.578000", "102754.578000", "102756.578000", "102758.578000", "102800.578000", "102802.578000", "102804.578000", "102806.578000", "102808.578000", "102810.578000", "102812.578000", "102814.578000", "102816.578000", "102818.593000", "102820.578000", "102822.578000", "102824.578000", "102826.578000", "102828.578000", "102830.578000", "102832.578000", "102834.578000", "102836.578000", "102838.578000", "102840.578000", "102842.578000", "102844.578000", "102846.578000", "102848.578000", "102851.078000", "102852.578000", "102854.578000", "102856.578000", "102858.578000", "102900.578000", "102902.578000", "102904.578000", "102906.578000", "102908.578000", "102910.578000", "102912.578000", "102914.578000", "102916.578000", "102918.578000", "102920.578000", "102922.578000", "102924.578000", "102926.578000", "102928.578000", "102930.578000", "102932.578000", "102934.578000", "102936.578000", "102938.578000", "102940.578000", "102942.578000", "102944.578000", "102946.578000", "102948.578000", "102950.578000", "102952.578000", "102955.078000", "102956.578000", "102958.578000", "103000.578000", "103003.078000", "103004.578000", "103006.578000", "103008.578000", "103010.578000", "103012.578000", "103014.578000", "103016.578000", "103018.578000", "103020.578000", "103022.578000", "103024.578000", "103026.578000", "103028.578000", "103030.578000", "103032.578000", "103034.578000", "103036.578000", "103038.578000", "103040.578000", "103042.578000", "103044.578000", "103046.578000", "103048.578000", "103050.578000", "103052.578000", "103054.578000", "103056.578000", "103058.578000", "103100.578000", "103102.578000", "103104.578000", "103106.578000", "103108.578000", "103110.578000", "103112.578000", "103114.578000", "103116.578000", "103119.078000", "103120.578000", "103122.578000", "103124.578000", "103126.578000", "103128.578000", "103130.578000", "103132.578000", "103135.078000", "103136.578000", "103138.578000", "103140.578000", "103142.578000", "103144.578000", "103146.578000", "103149.078000", "103150.578000", "103152.578000", "103154.578000", "103157.078000", "103158.578000", "103200.578000", "103202.578000", "103204.578000", "103206.578000", "103208.578000", "103210.578000", "103212.578000", "103214.578000", "103216.578000", "103218.578000", "103220.578000", "103222.578000", "103224.578000", "103226.578000", "103228.578000", "103230.578000", "103232.578000", "103234.578000", "103236.578000", "103238.578000", "103240.578000", "103242.578000", "103244.578000", "103246.578000", "103248.578000", "103251.078000", "103252.578000", "103254.578000", "103256.578000", "103258.578000", "103300.578000", "103302.578000", "103304.578000", "103306.578000", "103308.578000", "103310.578000", "103312.578000", "103314.578000", "103316.578000", "103318.578000", "103320.578000", "103322.578000", "103324.578000", "103326.578000", "103328.578000", "103330.578000", "103332.578000", "103334.578000", "103336.578000", "103338.578000", "103340.578000", "103342.578000", "103344.578000", "103346.578000", "103348.578000", "103350.578000", "103352.578000", "103354.578000", "103356.578000", "103358.578000", "103400.578000", "103402.578000", "103404.578000", "103406.578000", "103408.578000", "103410.578000", "103412.578000", "103414.578000", "103416.578000", "103418.406000"],
      "InstanceNumber": [1, 2, 3, 4, 5, 6, 7, 8, 9, 10, 11, 12, 13, 14, 15, 16, 17, 18, 19, 20, 21, 22, 23, 24, 25, 26, 27, 28, 29, 30, 31, 32, 33, 34, 35, 36, 37, 38, 39, 40, 41, 42, 43, 44, 45, 46, 47, 48, 49, 50, 51, 52, 53, 54, 55, 56, 57, 58, 59, 60, 61, 62, 63, 64, 65, 66, 67, 68, 69, 70, 71, 72, 73, 74, 75, 76, 77, 78, 79, 80, 81, 82, 83, 84, 85, 86, 87, 88, 89, 90, 91, 92, 93, 94, 95, 96, 97, 98, 99, 100, 101, 102, 103, 104, 105, 106, 107, 108, 109, 110, 111, 112, 113, 114, 115, 116, 117, 118, 119, 120, 121, 122, 123, 124, 125, 126, 127, 128, 129, 130, 131, 132, 133, 134, 135, 136, 137, 138, 139, 140, 141, 142, 143, 144, 145, 146, 147, 148, 149, 150, 151, 152, 153, 154, 155, 156, 157, 158, 159, 160, 161, 162, 163, 164, 165, 166, 167, 168, 169, 170, 171, 172, 173, 174, 175, 176, 177, 178, 179, 180, 181, 182, 183, 184, 185, 186, 187, 188, 189, 190, 191, 192, 193, 194, 195, 196, 197, 198, 199, 200, 201, 202, 203, 204, 205, 206, 207, 208, 209, 210],
      "LargestImagePixelValue": [2073, 1971, 1935, 1938, 1915, 1913, 1907, 1921, 1906, 1916, 1898, 1902, 1883, 1921, 1903, 1901, 1967, 1894, 1904, 1899, 1896, 1856, 1870, 1878, 1982, 1875, 1891, 1957, 1872, 1879, 1868, 1884, 1889, 1880, 1872, 1874, 1892, 1874, 1898, 1870, 1871, 1871, 1874, 1912, 1882, 1908, 1886, 1887, 1892, 1896, 1976, 1896, 1902, 2054, 1904, 1920, 1894, 1904, 1906, 1895, 1925, 1898, 1905, 1903, 1931, 1924, 1926, 1900, 1922, 2075, 1923, 1891, 1917, 1920, 1908, 1907, 1918, 1921, 1911, 1942, 1927, 1939, 2031, 1911, 1922, 1916, 1919, 1916, 1962, 1907, 1909, 1925, 1925, 1914, 1905, 1940, 1913, 1925, 1929, 1915, 1929, 1916, 1931, 1933, 1938, 1939, 1941, 1939, 1951, 1934, 1925, 1977, 1932, 1932, 1915, 1919, 1944, 1928, 1922, 1965, 1931, 1937, 1926, 1928, 1948, 1928, 1940, 1975, 1933, 1922, 1935, 1955, 1946, 1928, 1936, 1989, 1922, 1936, 1929, 1921, 2013, 1940, 1934, 1924, 1909, 1916, 1903, 1878, 1886, 1919, 1966, 1930, 1935, 1928, 1957, 2094, 1950, 1944, 1946, 1934, 1928, 1940, 1947, 1945, 1942, 1915, 1937, 1952, 1939, 1952, 1958, 1943, 1949, 1947, 1947, 1952, 1964, 1944, 1951, 1934, 1937, 1932, 1959, 1979, 1946, 1937, 2010, 1940, 1931, 1948, 1939, 1976, 1930, 1958, 1921, 1932, 1922, 1940, 1931, 1933, 1930, 1946, 1909, 1919, 1920, 1931, 1919, 1918, 1905, 1932],
      "WindowCenter": [752.0, 749.0, 747.0, 747.0, 747.0, 746.0, 745.0, 747.0, 749.0, 751.0, 752.0, 753.0, 752.0, 753.0, 751.0, 751.0, 750.0, 750.0, 749.0, 748.0, 748.0, 749.0, 749.0, 748.0, 747.0, 745.0, 743.0, 743.0, 742.0, 743.0, 744.0, 745.0, 746.0, 748.0, 749.0, 750.0, 751.0, 752.0, 752.0, 752.0, 752.0, 752.0, 751.0, 751.0, 752.0, 753.0, 753.0, 752.0, 752.0, 750.0, 750.0, 748.0, 747.0, 748.0, 747.0, 748.0, 747.0, 748.0, 749.0, 749.0, 750.0, 750.0, 749.0, 749.0, 750.0, 752.0, 753.0, 753.0, 752.0, 750.0, 748.0, 749.0, 750.0, 751.0, 751.0, 752.0, 753.0, 754.0, 753.0, 753.0, 751.0, 750.0, 750.0, 749.0, 749.0, 749.0, 749.0, 749.0, 749.0, 748.0, 748.0, 749.0, 749.0, 749.0, 749.0, 749.0, 750.0, 752.0, 752.0, 751.0, 750.0, 750.0, 752.0, 751.0, 752.0, 751.0, 751.0, 749.0, 750.0, 749.0, 749.0, 749.0, 749.0, 748.0, 748.0, 749.0, 750.0, 750.0, 750.0, 750.0, 750.0, 752.0, 753.0, 753.0, 752.0, 753.0, 753.0, 753.0, 752.0, 752.0, 752.0, 751.0, 750.0, 749.0, 749.0, 750.0, 751.0, 750.0, 749.0, 748.0, 749.0, 748.0, 749.0, 748.0, 750.0, 751.0, 751.0, 751.0, 751.0, 754.0, 759.0, 755.0, 755.0, 753.0, 751.0, 748.0, 746.0, 746.0, 746.0, 747.0, 748.0, 749.0, 750.0, 750.0, 750.0, 751.0, 751.0, 752.0, 753.0, 754.0, 755.0, 755.0, 756.0, 755.0, 755.0, 755.0, 755.0, 754.0, 753.0, 753.0, 752.0, 752.0, 751.0, 752.0, 751.0, 750.0, 751.0, 750.0, 749.0, 750.0, 751.0, 751.0, 751.0, 751.0, 751.0, 750.0, 750.0, 751.0, 751.0, 752.0, 752.0, 751.0, 749.0, 749.0, 749.0, 751.0, 750.0, 751.0, 752.0, 752.0],
      "WindowWidth": [1602.0, 1593.0, 1589.0, 1589.0, 1588.0, 1586.0, 1585.0, 1588.0, 1593.0, 1599.0, 1603.0, 1603.0, 1602.0, 1603.0, 1599.0, 1598.0, 1597.0, 1596.0, 1594.0, 1592.0, 1592.0, 1594.0, 1593.0, 1590.0, 1587.0, 1583.0, 1579.0, 1578.0, 1577.0, 1578.0, 1582.0, 1585.0, 1587.0, 1591.0, 1594.0, 1597.0, 1598.0, 1600.0, 1600.0, 1600.0, 1600.0, 1601.0, 1599.0, 1600.0, 1601.0, 1603.0, 1605.0, 1602.0, 1601.0, 1597.0, 1596.0, 1591.0, 1589.0, 1591.0, 1589.0, 1590.0, 1589.0, 1590.0, 1593.0, 1594.0, 1597.0, 1597.0, 1594.0, 1594.0, 1597.0, 1603.0, 1604.0, 1603.0, 1600.0, 1597.0, 1592.0, 1593.0, 1597.0, 1598.0, 1599.0, 1601.0, 1603.0, 1607.0, 1605.0, 1604.0, 1600.0, 1597.0, 1596.0, 1594.0, 1594.0, 1594.0, 1595.0, 1593.0, 1593.0, 1591.0, 1592.0, 1594.0, 1595.0, 1594.0, 1593.0, 1594.0, 1597.0, 1600.0, 1602.0, 1598.0, 1596.0, 1597.0, 1600.0, 1600.0, 1600.0, 1600.0, 1598.0, 1595.0, 1595.0, 1593.0, 1594.0, 1594.0, 1593.0, 1593.0, 1592.0, 1593.0, 1596.0, 1597.0, 1597.0, 1596.0, 1597.0, 1602.0, 1605.0, 1603.0, 1601.0, 1603.0, 1605.0, 1605.0, 1602.0, 1602.0, 1602.0, 1599.0, 1597.0, 1594.0, 1595.0, 1598.0, 1599.0, 1597.0, 1593.0, 1592.0, 1593.0, 1592.0, 1593.0, 1591.0, 1596.0, 1598.0, 1599.0, 1600.0, 1600.0, 1609.0, 1619.0, 1609.0, 1609.0, 1604.0, 1599.0, 1592.0, 1586.0, 1585.0, 1586.0, 1588.0, 1590.0, 1593.0, 1595.0, 1595.0, 1597.0, 1598.0, 1599.0, 1601.0, 1605.0, 1606.0, 1609.0, 1609.0, 1610.0, 1608.0, 1608.0, 1608.0, 1609.0, 1607.0, 1605.0, 1603.0, 1600.0, 1600.0, 1600.0, 1601.0, 1598.0, 1596.0, 1598.0, 1597.0, 1594.0, 1596.0, 1598.0, 1599.0, 1598.0, 1598.0, 1597.0, 1596.0, 1596.0, 1599.0, 1600.0, 1601.0, 1600.0, 1597.0, 1594.0, 1593.0, 1594.0, 1598.0, 1597.0, 1599.0, 1601.0, 1602.0]
    },
    "slices": {}
  }
}