{
  "AcquisitionMatrixPE": 64,
  "AcquisitionNumber": 1,
  "AcquisitionTime": "18:05:34.475000",
  "BandwidthPerPixelPhaseEncode": 30.637,
  "BaseResolution": 64,
  "BidsGuess": [
    "func",
    "_acq-epfid2_dir-AP_run-8_bold"
],
  "CoilCombinationMethod": "Sum of Squares",
  "CoilString": "C:HEA;HEP",
  "ConversionSoftware": "dcm2niix",
  "ConversionSoftwareVersion": "v1.0.20240202",
  "DerivedVendorReportedEchoSpacing": 0.000510004,
  "DeviceSerialNumber": "35119",
  "DwellTime": 3.5e-06,
  "EchoTime": 0.03,
  "EffectiveEchoSpacing": 0.000510004,
  "FlipAngle": 78,
  "HeudiconvVersion": "1.1.6",
  "ImageComments": "V",
  "ImageOrientationPatientDICOM": [0.99996, -0.003279, -0.00833, 0, 0.930492, -0.366312],
  "ImageOrientationText": "Tra>Cor(-21.5)>Sag(-0.5)",
  "ImageType": [
    "ORIGINAL",
    "PRIMARY",
    "M",
    "ND",
    "MOSAIC"
],
  "ImagingFrequency": 123.252081,
  "InPlanePhaseEncodingDirectionDICOM": "COL",
  "InstitutionAddress": "Chaucer Road  15,Cambridge,UK,GB,CB2 2EF",
  "InstitutionName": "MRC-CBU",
  "MRAcquisitionType": "2D",
  "MagneticFieldStrength": 3,
  "Manufacturer": "Siemens",
  "ManufacturersModelName": "TrioTim",
  "MatrixCoilMode": "SENSE",
  "Modality": "MR",
  "NonlinearGradientCorrection": false,
  "PartialFourier": 1,
  "PatientPosition": "HFS",
  "PercentPhaseFOV": 100,
  "PercentSampling": 100,
  "PhaseEncodingDirection": "j-",
  "PhaseEncodingSteps": 64,
  "PhaseResolution": 1,
  "PixelBandwidth": 2230,
  "ProcedureStepDescription": "CBU^Neuroimaging",
  "ProtocolName": "CBU_DWEPI_BOLD210",
  "PulseSequenceDetails": "%SiemensSeq%\\ep2d_bold",
  "ReceiveCoilName": "HeadMatrix",
  "ReconMatrixPE": 64,
  "RepetitionTime": 2,
  "SAR": 0.129421,
  "ScanOptions": "FS",
  "ScanningSequence": "EP",
  "SequenceName": "*epfid2d1_64",
  "SequenceVariant": "SK",
  "SeriesDescription": "CBU_DWEPI_BOLD210",
  "SeriesNumber": 8,
  "ShimSetting": [-7844, -8614, -2373, 974, -97, 784, -344, -35],
  "SliceThickness": 3,
  "SliceTiming": [0, 1.035, 0.06, 1.095, 0.1225, 1.155, 0.1825, 1.2175, 0.2425, 1.2775, 0.305, 1.3375, 0.365, 1.4, 0.425, 1.46, 0.4875, 1.52, 0.5475, 1.5825, 0.6075, 1.6425, 0.67, 1.7025, 0.73, 1.765, 0.79, 1.825, 0.8525, 1.885, 0.9125, 1.9475, 0.9725],
  "SoftwareVersions": "syngo MR B15",
  "SpacingBetweenSlices": 3.75,
  "StationName": "MRC35119",
  "TaskName": "faceprocessing",
  "TotalReadoutTime": 0.0321303,
  "TxRefAmp": 312.996,
  "dcmmeta_affine": [
    [-2.999880075454712, 0.0, -0.033570509403944016, 95.77283477783203],
    [0.009836999699473381, 2.791476011276245, -1.373615026473999, -62.95532989501953],
    [-0.02498999983072281, 1.0989359617233276, 3.4892053604125977, -73.0145263671875],
    [0.0, 0.0, 0.0, 1.0]
],
  "dcmmeta_reorient_transform": [
    [0.0, -1.0, 0.0, 63.0],
    [1.0, 0.0, 0.0, 0.0],
    [0.0, 0.0, 1.0, 0.0],
    [0.0, 0.0, 0.0, 1.0]
],
  "dcmmeta_shape": [64, 64, 33, 210],
  "dcmmeta_slice_dim": 2,
  "dcmmeta_version": 0.6,
  "global": {
    "const": {
      "AcquisitionMatrix": [64, 0, 0, 64],
      "AngioFlag": "N",
      "BitsAllocated": 16,
      "BitsStored": 12,
      "Columns": 384,
      "EchoNumbers": 1,
      "EchoTime": 30.0,
      "EchoTrainLength": 1,
      "FlipAngle": 78.0,
      "HighBit": 11,
      "ImageOrientationPatient": [0.99996, -0.003279, -0.00833, 0.0, 0.930492, -0.366312],
      "ImagePositionPatient": [-575.753638, -557.9699, 176.046598],
      "ImageType": [
        "ORIGINAL",
        "PRIMARY",
        "M",
        "ND",
        "MOSAIC"
],
      "ImagedNucleus": "1H",
      "ImagingFrequency": 123.252081,
      "InPlanePhaseEncodingDirection": "COL",
      "MRAcquisitionType": "2D",
      "MagneticFieldStrength": 3.0,
      "Manufacturer": "SIEMENS",
      "ManufacturerModelName": "TrioTim",
      "Modality": "MR",
      "NumberOfAverages": 1.0,
      "NumberOfPhaseEncodingSteps": 64,
      "PercentPhaseFieldOfView": 100.0,
      "PercentSampling": 100.0,
      "PerformedProcedureStepStartTime": "171511.593000",
      "PhotometricInterpretation": "MONOCHROME2",
      "PixelAspectRatio": [1, 1],
      "PixelBandwidth": 2230.0,
      "PixelRepresentation": 0,
      "PixelSpacing": [3.0, 3.0],
      "ProtocolName": "CBU_DWEPI_BOLD210",
      "RepetitionTime": 2000.0,
      "Rows": 384,
      "SAR": 0.129421,
      "SamplesPerPixel": 1,
      "ScanOptions": "FS",
      "ScanningSequence": "EP",
      "SequenceName": "*epfid2d1_64",
      "SequenceVariant": "SK",
      "SeriesDescription": "CBU_DWEPI_BOLD210",
      "SeriesNumber": 8,
      "SeriesTime": "180538.562000",
      "SliceLocation": -45.733594,
      "SliceThickness": 3.0,
      "SmallestImagePixelValue": 0,
      "SoftwareVersions": "syngo MR B15",
      "SpacingBetweenSlices": 3.75,
      "SpecificCharacterSet": "ISO_IR 100",
      "StudyID": "1",
      "StudyTime": "171511.437000",
      "TransmitCoilName": "Body",
      "VariableFlipAngleFlag": "N",
      "WindowCenterWidthExplanation": "Algo1",
      "dBdt": 0.0},
    "slices": {}
  },
  "time": {
    "samples": {
      "AcquisitionNumber": [1, 2, 3, 4, 5, 6, 7, 8, 9, 10, 11, 12, 13, 14, 15, 16, 17, 18, 19, 20, 21, 22, 23, 24, 25, 26, 27, 28, 29, 30, 31, 32, 33, 34, 35, 36, 37, 38, 39, 40, 41, 42, 43, 44, 45, 46, 47, 48, 49, 50, 51, 52, 53, 54, 55, 56, 57, 58, 59, 60, 61, 62, 63, 64, 65, 66, 67, 68, 69, 70, 71, 72, 73, 74, 75, 76, 77, 78, 79, 80, 81, 82, 83, 84, 85, 86, 87, 88, 89, 90, 91, 92, 93, 94, 95, 96, 97, 98, 99, 100, 101, 102, 103, 104, 105, 106, 107, 108, 109, 110, 111, 112, 113, 114, 115, 116, 117, 118, 119, 120, 121, 122, 123, 124, 125, 126, 127, 128, 129, 130, 131, 132, 133, 134, 135, 136, 137, 138, 139, 140, 141, 142, 143, 144, 145, 146, 147, 148, 149, 150, 151, 152, 153, 154, 155, 156, 157, 158, 159, 160, 161, 162, 163, 164, 165, 166, 167, 168, 169, 170, 171, 172, 173, 174, 175, 176, 177, 178, 179, 180, 181, 182, 183, 184, 185, 186, 187, 188, 189, 190, 191, 192, 193, 194, 195, 196, 197, 198, 199, 200, 201, 202, 203, 204, 205, 206, 207, 208, 209, 210],
      "AcquisitionTime": ["180534.475000", "180536.482500", "180538.490000", "180540.500000", "180542.507500", "180544.515000", "180546.522500", "180548.530000", "180550.540000", "180552.547500", "180554.555000", "180556.562500", "180558.570000", "180600.580000", "180602.587500", "180604.595000", "180606.602500", "180608.612500", "180610.620000", "180612.627500", "180614.635000", "180616.642500", "180618.652500", "180620.660000", "180622.667500", "180624.675000", "180626.682500", "180628.692500", "180630.700000", "180632.707500", "180634.715000", "180636.725000", "180638.732500", "180640.740000", "180642.747500", "180644.755000", "180646.765000", "180648.772500", "180650.780000", "180652.787500", "180654.795000", "180656.805000", "180658.812500", "180700.820000", "180702.827500", "180704.835000", "180706.845000", "180708.852500", "180710.860000", "180712.867500", "180714.877500", "180716.885000", "180718.892500", "180720.900000", "180722.907500", "180724.917500", "180726.925000", "180728.932500", "180730.940000", "180732.947500", "180734.957500", "180736.965000", "180738.972500", "180740.980000", "180742.990000", "180744.997500", "180747.005000", "180749.012500", "180751.020000", "180753.030000", "180755.037500", "180757.045000", "180759.052500", "180801.060000", "180803.070000", "180805.077500", "180807.085000", "180809.092500", "180811.102500", "180813.110000", "180815.117500", "180817.125000", "180819.132500", "180821.142500", "180823.150000", "180825.157500", "180827.165000", "180829.172500", "180831.182500", "180833.190000", "180835.197500", "180837.205000", "180839.212500", "180841.222500", "180843.230000", "180845.237500", "180847.245000", "180849.255000", "180851.262500", "180853.270000", "180855.277500", "180857.285000", "180859.295000", "180901.302500", "180903.310000", "180905.317500", "180907.325000", "180909.335000", "180911.342500", "180913.350000", "180915.357500", "180917.367500", "180919.375000", "180921.382500", "180923.390000", "180925.397500", "180927.407500", "180929.415000", "180931.422500", "180933.430000", "180935.437500", "180937.447500", "180939.455000", "180941.462500", "180943.470000", "180945.480000", "180947.487500", "180949.495000", "180951.502500", "180953.510000", "180955.520000", "180957.527500", "180959.535000", "181001.542500", "181003.550000", "181005.560000", "181007.567500", "181009.575000", "181011.582500", "181013.592500", "181015.600000", "181017.607500", "181019.615000", "181021.622500", "181023.632500", "181025.640000", "181027.647500", "181029.655000", "181031.662500", "181033.672500", "181035.680000", "181037.687500", "181039.695000", "181041.702500", "181043.712500", "181045.720000", "181047.727500", "181049.735000", "181051.745000", "181053.752500", "181055.760000", "181057.767500", "181059.775000", "181101.785000", "181103.792500", "181105.800000", "181107.807500", "181109.815000", "181111.825000", "181113.832500", "181115.840000", "181117.847500", "181119.857500", "181121.865000", "181123.872500", "181125.880000", "181127.887500", "181129.897500", "181131.905000", "181133.912500", "181135.920000", "181137.927500", "181139.937500", "181141.945000", "181143.952500", "181145.960000", "181147.970000", "181149.977500", "181151.985000", "181153.992500", "181156.000000", "181158.010000", "181200.017500", "181202.025000", "181204.032500", "181206.040000", "181208.050000", "181210.057500", "181212.065000", "181214.072500", "181216.080000", "181218.090000", "181220.097500", "181222.105000", "181224.112500", "181226.122500", "181228.130000", "181230.137500", "181232.145000", "181234.152500"],
      "ContentTime": ["180538.562000", "180540.562000", "180542.562000", "180544.562000", "180546.562000", "180548.562000", "180550.562000", "180552.562000", "180554.562000", "180556.562000", "180558.562000", "180600.562000", "180602.562000", "180604.562000", "180606.562000", "180608.562000", "180610.562000", "180612.562000", "180614.562000", "180616.562000", "180618.562000", "180620.562000", "180622.562000", "180624.562000", "180626.562000", "180628.562000", "180630.562000", "180632.562000", "180634.562000", "180636.562000", "180638.562000", "180640.562000", "180642.562000", "180644.562000", "180646.562000", "180648.562000", "180650.562000", "180652.562000", "180654.562000", "180656.562000", "180658.562000", "180700.562000", "180702.562000", "180704.562000", "180706.562000", "180708.562000", "180710.562000", "180712.562000", "180714.562000", "180716.562000", "180718.562000", "180720.562000", "180722.562000", "180724.562000", "180726.562000", "180728.562000", "180730.562000", "180732.562000", "180734.562000", "180736.562000", "180738.562000", "180740.562000", "180742.562000", "180744.562000", "180746.562000", "180748.562000", "180750.562000", "180752.562000", "180754.562000", "180756.562000", "180758.562000", "180800.562000", "180802.562000", "180804.562000", "180806.562000", "180808.562000", "180810.562000", "180812.562000", "180814.562000", "180816.562000", "180818.562000", "180820.562000", "180822.562000", "180824.562000", "180826.562000", "180828.562000", "180830.562000", "180832.562000", "180834.562000", "180836.562000", "180838.562000", "180840.562000", "180842.562000", "180844.562000", "180846.562000", "180848.562000", "180850.562000", "180852.562000", "180854.562000", "180856.562000", "180858.562000", "180900.562000", "180902.562000", "180904.562000", "180906.562000", "180908.562000", "180910.562000", "180912.562000", "180914.562000", "180916.562000", "180918.562000", "180920.562000", "180922.562000", "180924.562000", "180926.562000", "180928.562000", "180930.562000", "180932.562000", "180934.562000", "180936.562000", "180938.562000", "180940.562000", "180942.562000", "180944.562000", "180946.562000", "180948.562000", "180950.562000", "180952.562000", "180954.562000", "180956.562000", "180958.562000", "181000.562000", "181002.562000", "181004.562000", "181006.562000", "181008.562000", "181010.562000", "181012.562000", "181014.562000", "181016.562000", "181018.562000", "181020.562000", "181022.562000", "181024.562000", "181026.562000", "181028.562000", "181030.562000", "181032.562000", "181034.562000", "181036.562000", "181038.562000", "181040.562000", "181042.562000", "181044.562000", "181046.562000", "181048.562000", "181050.562000", "181052.562000", "181054.562000", "181056.562000", "181058.562000", "181100.562000", "181102.562000", "181104.562000", "181106.562000", "181108.562000", "181110.562000", "181112.562000", "181114.562000", "181116.562000", "181118.562000", "181120.562000", "181122.562000", "181124.562000", "181126.562000", "181128.562000", "181130.562000", "181132.562000", "181134.562000", "181136.562000", "181138.562000", "181140.562000", "181142.562000", "181144.562000", "181146.562000", "181148.562000", "181150.562000", "181152.562000", "181154.562000", "181156.562000", "181158.562000", "181200.562000", "181202.562000", "181204.562000", "181206.562000", "181208.562000", "181210.562000", "181212.562000", "181214.562000", "181216.562000", "181218.562000", "181220.562000", "181222.562000", "181224.562000", "181226.562000", "181228.562000", "181230.562000", "181232.562000", "181234.562000", "181236.187000"],
      "InstanceCreationTime": ["180538.562000", "180540.562000", "180542.562000", "180544.562000", "180546.562000", "180548.562000", "180550.562000", "180552.562000", "180554.562000", "180556.562000", "180558.562000", "180600.562000", "180602.562000", "180604.562000", "180606.562000", "180608.562000", "180610.562000", "180612.562000", "180614.562000", "180616.562000", "180618.562000", "180620.562000", "180622.562000", "180624.562000", "180626.562000", "180628.562000", "180630.562000", "180632.562000", "180634.562000", "180636.562000", "180638.562000", "180640.562000", "180642.562000", "180644.562000", "180646.562000", "180648.562000", "180650.562000", "180652.562000", "180654.562000", "180656.562000", "180658.562000", "180700.562000", "180702.562000", "180704.562000", "180706.562000", "180708.562000", "180710.562000", "180712.562000", "180714.562000", "180716.562000", "180718.562000", "180720.562000", "180722.562000", "180724.562000", "180726.562000", "180728.562000", "180730.562000", "180732.562000", "180734.562000", "180736.562000", "180738.562000", "180740.562000", "180742.562000", "180744.562000", "180746.562000", "180748.562000", "180750.562000", "180752.562000", "180754.562000", "180756.562000", "180758.562000", "180800.562000", "180802.562000", "180804.562000", "180806.562000", "180808.562000", "180810.562000", "180812.562000", "180814.562000", "180816.562000", "180818.562000", "180820.562000", "180822.562000", "180824.562000", "180826.562000", "180828.562000", "180830.562000", "180832.562000", "180834.562000", "180836.562000", "180838.562000", "180840.562000", "180842.562000", "180844.562000", "180846.562000", "180848.562000", "180850.562000", "180852.562000", "180854.562000", "180856.562000", "180858.562000", "180900.562000", "180902.562000", "180904.562000", "180906.562000", "180908.562000", "180910.562000", "180912.562000", "180914.562000", "180916.562000", "180918.562000", "180920.562000", "180922.562000", "180924.562000", "180926.562000", "180928.562000", "180930.562000", "180932.562000", "180934.562000", "180936.562000", "180938.562000", "180940.562000", "180942.562000", "180944.562000", "180946.562000", "180948.562000", "180950.562000", "180952.562000", "180954.562000", "180956.562000", "180958.562000", "181000.562000", "181002.562000", "181004.562000", "181006.562000", "181008.562000", "181010.562000", "181012.562000", "181014.562000", "181016.562000", "181018.562000", "181020.562000", "181022.562000", "181024.562000", "181026.562000", "181028.562000", "181030.562000", "181032.562000", "181034.562000", "181036.562000", "181038.562000", "181040.562000", "181042.562000", "181044.562000", "181046.562000", "181048.562000", "181050.562000", "181052.562000", "181054.562000", "181056.562000", "181058.562000", "181100.562000", "181102.562000", "181104.562000", "181106.562000", "181108.562000", "181110.562000", "181112.562000", "181114.562000", "181116.562000", "181118.562000", "181120.562000", "181122.562000", "181124.562000", "181126.562000", "181128.562000", "181130.562000", "181132.562000", "181134.562000", "181136.562000", "181138.562000", "181140.562000", "181142.562000", "181144.562000", "181146.562000", "181148.562000", "181150.562000", "181152.562000", "181154.562000", "181156.562000", "181158.562000", "181200.562000", "181202.562000", "181204.562000", "181206.562000", "181208.562000", "181210.562000", "181212.562000", "181214.562000", "181216.562000", "181218.562000", "181220.562000", "181222.562000", "181224.562000", "181226.562000", "181228.562000", "181230.562000", "181232.562000", "181234.562000", "181236.187000"],
      "InstanceNumber": [1, 2, 3, 4, 5, 6, 7, 8, 9, 10, 11, 12, 13, 14, 15, 16, 17, 18, 19, 20, 21, 22, 23, 24, 25, 26, 27, 28, 29, 30, 31, 32, 33, 34, 35, 36, 37, 38, 39, 40, 41, 42, 43, 44, 45, 46, 47, 48, 49, 50, 51, 52, 53, 54, 55, 56, 57, 58, 59, 60, 61, 62, 63, 64, 65, 66, 67, 68, 69, 70, 71, 72, 73, 74, 75, 76, 77, 78, 79, 80, 81, 82, 83, 84, 85, 86, 87, 88, 89, 90, 91, 92, 93, 94, 95, 96, 97, 98, 99, 100, 101, 102, 103, 104, 105, 106, 107, 108, 109, 110, 111, 112, 113, 114, 115, 116, 117, 118, 119, 120, 121, 122, 123, 124, 125, 126, 127, 128, 129, 130, 131, 132, 133, 134, 135, 136, 137, 138, 139, 140, 141, 142, 143, 144, 145, 146, 147, 148, 149, 150, 151, 152, 153, 154, 155, 156, 157, 158, 159, 160, 161, 162, 163, 164, 165, 166, 167, 168, 169, 170, 171, 172, 173, 174, 175, 176, 177, 178, 179, 180, 181, 182, 183, 184, 185, 186, 187, 188, 189, 190, 191, 192, 193, 194, 195, 196, 197, 198, 199, 200, 201, 202, 203, 204, 205, 206, 207, 208, 209, 210],
      "LargestImagePixelValue": [2131, 2050, 2035, 2018, 1999, 2012, 2217, 1992, 2000, 2013, 2016, 2012, 2007, 2024, 2007, 2017, 2013, 2008, 2004, 1997, 2022, 2018, 2016, 2016, 2068, 2014, 2001, 2010, 2010, 2000, 2022, 1991, 2037, 1991, 2001, 1984, 1992, 2003, 1963, 1979, 1999, 2005, 2006, 2014, 2061, 1987, 2003, 2032, 2009, 2014, 2016, 2013, 2025, 2083, 1990, 1976, 1991, 2005, 1980, 2016, 1994, 2006, 2007, 2006, 2006, 2007, 2010, 2028, 2042, 2010, 2116, 1987, 1998, 1996, 2012, 1998, 1994, 1990, 1979, 2009, 2020, 2093, 2026, 1988, 1976, 1994, 1995, 2005, 1971, 1987, 1983, 1991, 1994, 2007, 2008, 2013, 2239, 2013, 2082, 2004, 1980, 2001, 1989, 1984, 1963, 1951, 1965, 1978, 1971, 1991, 1980, 2069, 1993, 2169, 1988, 1994, 1976, 1980, 1990, 2051, 1974, 1970, 2050, 1965, 1969, 1990, 1987, 2009, 1982, 1995, 1992, 2128, 1998, 1940, 2053, 1992, 2087, 1944, 1937, 1920, 1932, 1965, 2017, 1950, 1954, 1969, 1957, 1966, 2177, 1973, 1974, 1959, 2012, 1975, 1963, 1925, 1959, 2014, 1876, 1884, 1863, 1871, 1992, 1845, 1863, 1873, 1862, 1897, 1914, 2108, 2002, 1894, 2042, 1886, 1870, 1849, 1883, 1906, 1883, 1865, 1874, 1876, 1849, 1881, 1877, 2123, 2199, 1997, 1888, 1907, 1977, 2284, 1902, 1877, 1921, 1928, 1910, 1959, 2032, 1938, 1938, 1866, 1885, 1960, 1896, 1973, 1959, 1876, 1926, 1964],
      "WindowCenter": [761.0, 757.0, 756.0, 757.0, 756.0, 754.0, 753.0, 750.0, 752.0, 753.0, 756.0, 756.0, 757.0, 756.0, 755.0, 755.0, 755.0, 754.0, 754.0, 753.0, 754.0, 754.0, 754.0, 754.0, 755.0, 756.0, 755.0, 754.0, 755.0, 757.0, 756.0, 754.0, 754.0, 753.0, 753.0, 753.0, 753.0, 753.0, 754.0, 755.0, 756.0, 756.0, 757.0, 756.0, 756.0, 755.0, 755.0, 754.0, 753.0, 753.0, 753.0, 754.0, 754.0, 753.0, 752.0, 753.0, 753.0, 753.0, 752.0, 753.0, 754.0, 756.0, 756.0, 755.0, 756.0, 759.0, 762.0, 758.0, 755.0, 753.0, 752.0, 751.0, 753.0, 754.0, 754.0, 754.0, 754.0, 755.0, 757.0, 757.0, 756.0, 754.0, 754.0, 753.0, 754.0, 754.0, 754.0, 755.0, 755.0, 756.0, 758.0, 757.0, 757.0, 756.0, 756.0, 754.0, 755.0, 754.0, 753.0, 753.0, 752.0, 752.0, 754.0, 756.0, 757.0, 756.0, 759.0, 762.0, 759.0, 756.0, 754.0, 755.0, 753.0, 753.0, 753.0, 752.0, 752.0, 752.0, 752.0, 752.0, 752.0, 752.0, 752.0, 752.0, 753.0, 754.0, 755.0, 756.0, 757.0, 757.0, 758.0, 756.0, 755.0, 754.0, 755.0, 752.0, 752.0, 751.0, 751.0, 752.0, 754.0, 756.0, 755.0, 755.0, 756.0, 756.0, 757.0, 756.0, 756.0, 755.0, 755.0, 753.0, 753.0, 752.0, 751.0, 751.0, 752.0, 754.0, 754.0, 751.0, 751.0, 751.0, 751.0, 752.0, 753.0, 755.0, 756.0, 756.0, 754.0, 754.0, 753.0, 752.0, 752.0, 750.0, 750.0, 751.0, 753.0, 752.0, 753.0, 753.0, 752.0, 752.0, 753.0, 755.0, 757.0, 759.0, 756.0, 752.0, 751.0, 751.0, 750.0, 750.0, 748.0, 747.0, 748.0, 751.0, 753.0, 754.0, 754.0, 751.0, 750.0, 751.0, 754.0, 755.0, 756.0, 755.0, 754.0, 753.0, 754.0, 754.0],
      "WindowWidth": [1614.0, 1603.0, 1600.0, 1601.0, 1599.0, 1595.0, 1591.0, 1584.0, 1590.0, 1592.0, 1599.0, 1600.0, 1601.0, 1599.0, 1596.0, 1596.0, 1597.0, 1595.0, 1595.0, 1593.0, 1595.0, 1595.0, 1595.0, 1594.0, 1596.0, 1598.0, 1597.0, 1595.0, 1598.0, 1602.0, 1599.0, 1595.0, 1594.0, 1592.0, 1593.0, 1592.0, 1592.0, 1592.0, 1593.0, 1598.0, 1599.0, 1599.0, 1601.0, 1600.0, 1599.0, 1596.0, 1596.0, 1593.0, 1592.0, 1593.0, 1593.0, 1595.0, 1594.0, 1592.0, 1590.0, 1592.0, 1591.0, 1591.0, 1590.0, 1592.0, 1595.0, 1599.0, 1600.0, 1598.0, 1601.0, 1607.0, 1616.0, 1604.0, 1597.0, 1590.0, 1589.0, 1587.0, 1592.0, 1594.0, 1595.0, 1595.0, 1594.0, 1597.0, 1602.0, 1601.0, 1598.0, 1595.0, 1594.0, 1593.0, 1593.0, 1595.0, 1595.0, 1597.0, 1598.0, 1600.0, 1603.0, 1602.0, 1601.0, 1600.0, 1599.0, 1595.0, 1597.0, 1595.0, 1593.0, 1591.0, 1589.0, 1590.0, 1594.0, 1599.0, 1601.0, 1600.0, 1607.0, 1613.0, 1605.0, 1598.0, 1594.0, 1596.0, 1593.0, 1593.0, 1592.0, 1588.0, 1588.0, 1590.0, 1590.0, 1590.0, 1589.0, 1588.0, 1589.0, 1590.0, 1591.0, 1595.0, 1597.0, 1599.0, 1602.0, 1602.0, 1605.0, 1599.0, 1596.0, 1594.0, 1596.0, 1590.0, 1590.0, 1588.0, 1587.0, 1590.0, 1595.0, 1599.0, 1596.0, 1596.0, 1598.0, 1599.0, 1603.0, 1600.0, 1599.0, 1597.0, 1597.0, 1592.0, 1592.0, 1589.0, 1588.0, 1587.0, 1589.0, 1594.0, 1596.0, 1587.0, 1588.0, 1588.0, 1588.0, 1591.0, 1592.0, 1597.0, 1601.0, 1598.0, 1595.0, 1596.0, 1591.0, 1590.0, 1590.0, 1586.0, 1585.0, 1588.0, 1593.0, 1590.0, 1592.0, 1593.0, 1590.0, 1590.0, 1592.0, 1598.0, 1603.0, 1607.0, 1598.0, 1590.0, 1588.0, 1586.0, 1584.0, 1584.0, 1581.0, 1578.0, 1580.0, 1589.0, 1593.0, 1594.0, 1594.0, 1588.0, 1586.0, 1589.0, 1595.0, 1598.0, 1600.0, 1597.0, 1594.0, 1592.0, 1594.0, 1594.0]
    },
    "slices": {}
  }
}