{
  "AcquisitionMatrixPE": 64,
  "AcquisitionNumber": 1,
  "AcquisitionTime": "17:35:43.722500",
  "BandwidthPerPixelPhaseEncode": 30.637,
  "BaseResolution": 64,
  "BidsGuess": [
    "func",
    "_acq-epfid2_dir-AP_run-4_bold"
],
  "CoilCombinationMethod": "Sum of Squares",
  "CoilString": "C:HEA;HEP",
  "ConversionSoftware": "dcm2niix",
  "ConversionSoftwareVersion": "v1.0.20240202",
  "DerivedVendorReportedEchoSpacing": 0.000510004,
  "DeviceSerialNumber": "35119",
  "DwellTime": 3.5e-06,
  "EchoTime": 0.03,
  "EffectiveEchoSpacing": 0.000510004,
  "FlipAngle": 78,
  "HeudiconvVersion": "1.1.6",
  "ImageComments": "V",
  "ImageOrientationPatientDICOM": [0.99996, -0.003279, -0.00833, 0, 0.930492, -0.366312],
  "ImageOrientationText": "Tra>Cor(-21.5)>Sag(-0.5)",
  "ImageType": [
    "ORIGINAL",
    "PRIMARY",
    "M",
    "ND",
    "MOSAIC"
],
  "ImagingFrequency": 123.252081,
  "InPlanePhaseEncodingDirectionDICOM": "COL",
  "InstitutionAddress": "Chaucer Road  15,Cambridge,UK,GB,CB2 2EF",
  "InstitutionName": "MRC-CBU",
  "MRAcquisitionType": "2D",
  "MagneticFieldStrength": 3,
  "Manufacturer": "Siemens",
  "ManufacturersModelName": "TrioTim",
  "MatrixCoilMode": "SENSE",
  "Modality": "MR",
  "NonlinearGradientCorrection": false,
  "PartialFourier": 1,
  "PatientPosition": "HFS",
  "PercentPhaseFOV": 100,
  "PercentSampling": 100,
  "PhaseEncodingDirection": "j-",
  "PhaseEncodingSteps": 64,
  "PhaseResolution": 1,
  "PixelBandwidth": 2230,
  "ProcedureStepDescription": "CBU^Neuroimaging",
  "ProtocolName": "CBU_DWEPI_BOLD210",
  "PulseSequenceDetails": "%SiemensSeq%\\ep2d_bold",
  "ReceiveCoilName": "HeadMatrix",
  "ReconMatrixPE": 64,
  "RepetitionTime": 2,
  "SAR": 0.129421,
  "ScanOptions": "FS",
  "ScanningSequence": "EP",
  "SequenceName": "*epfid2d1_64",
  "SequenceVariant": "SK",
  "SeriesDescription": "CBU_DWEPI_BOLD210",
  "SeriesNumber": 4,
  "ShimSetting": [-7844, -8614, -2373, 974, -97, 784, -344, -35],
  "SliceThickness": 3,
  "SliceTiming": [0, 1.0325, 0.06, 1.095, 0.12, 1.155, 0.1825, 1.215, 0.2425, 1.2775, 0.3025, 1.3375, 0.365, 1.3975, 0.425, 1.46, 0.485, 1.52, 0.5475, 1.58, 0.6075, 1.6425, 0.6675, 1.7025, 0.73, 1.7625, 0.79, 1.825, 0.85, 1.885, 0.9125, 1.945, 0.9725],
  "SoftwareVersions": "syngo MR B15",
  "SpacingBetweenSlices": 3.75,
  "StationName": "MRC35119",
  "TaskName": "faceprocessing",
  "TotalReadoutTime": 0.0321303,
  "TxRefAmp": 312.996,
  "dcmmeta_affine": [
    [-2.999880075454712, 0.0, -0.033570509403944016, 95.77283477783203],
    [0.009836999699473381, 2.791476011276245, -1.373615026473999, -62.95532989501953],
    [-0.02498999983072281, 1.0989359617233276, 3.4892053604125977, -73.0145263671875],
    [0.0, 0.0, 0.0, 1.0]
],
  "dcmmeta_reorient_transform": [
    [0.0, -1.0, 0.0, 63.0],
    [1.0, 0.0, 0.0, 0.0],
    [0.0, 0.0, 1.0, 0.0],
    [0.0, 0.0, 0.0, 1.0]
],
  "dcmmeta_shape": [64, 64, 33, 210],
  "dcmmeta_slice_dim": 2,
  "dcmmeta_version": 0.6,
  "global": {
    "const": {
      "AcquisitionMatrix": [64, 0, 0, 64],
      "AngioFlag": "N",
      "BitsAllocated": 16,
      "BitsStored": 12,
      "Columns": 384,
      "EchoNumbers": 1,
      "EchoTime": 30.0,
      "EchoTrainLength": 1,
      "FlipAngle": 78.0,
      "HighBit": 11,
      "ImageOrientationPatient": [0.99996, -0.003279, -0.00833, 0.0, 0.930492, -0.366312],
      "ImagePositionPatient": [-575.753638, -557.9699, 176.046598],
      "ImageType": [
        "ORIGINAL",
        "PRIMARY",
        "M",
        "ND",
        "MOSAIC"
],
      "ImagedNucleus": "1H",
      "ImagingFrequency": 123.252081,
      "InPlanePhaseEncodingDirection": "COL",
      "MRAcquisitionType": "2D",
      "MagneticFieldStrength": 3.0,
      "Manufacturer": "SIEMENS",
      "ManufacturerModelName": "TrioTim",
      "Modality": "MR",
      "NumberOfAverages": 1.0,
      "NumberOfPhaseEncodingSteps": 64,
      "PercentPhaseFieldOfView": 100.0,
      "PercentSampling": 100.0,
      "PerformedProcedureStepStartTime": "171511.593000",
      "PhotometricInterpretation": "MONOCHROME2",
      "PixelAspectRatio": [1, 1],
      "PixelBandwidth": 2230.0,
      "PixelRepresentation": 0,
      "PixelSpacing": [3.0, 3.0],
      "ProtocolName": "CBU_DWEPI_BOLD210",
      "RepetitionTime": 2000.0,
      "Rows": 384,
      "SAR": 0.129421,
      "SamplesPerPixel": 1,
      "ScanOptions": "FS",
      "ScanningSequence": "EP",
      "SequenceName": "*epfid2d1_64",
      "SequenceVariant": "SK",
      "SeriesDescription": "CBU_DWEPI_BOLD210",
      "SeriesNumber": 4,
      "SeriesTime": "173547.750000",
      "SliceLocation": -45.733594,
      "SliceThickness": 3.0,
      "SmallestImagePixelValue": 0,
      "SoftwareVersions": "syngo MR B15",
      "SpacingBetweenSlices": 3.75,
      "SpecificCharacterSet": "ISO_IR 100",
      "StudyID": "1",
      "StudyTime": "171511.437000",
      "TransmitCoilName": "Body",
      "VariableFlipAngleFlag": "N",
      "WindowCenterWidthExplanation": "Algo1",
      "dBdt": 0.0},
    "slices": {}
  },
  "time": {
    "samples": {
      "AcquisitionNumber": [1, 2, 3, 4, 5, 6, 7, 8, 9, 10, 11, 12, 13, 14, 15, 16, 17, 18, 19, 20, 21, 22, 23, 24, 25, 26, 27, 28, 29, 30, 31, 32, 33, 34, 35, 36, 37, 38, 39, 40, 41, 42, 43, 44, 45, 46, 47, 48, 49, 50, 51, 52, 53, 54, 55, 56, 57, 58, 59, 60, 61, 62, 63, 64, 65, 66, 67, 68, 69, 70, 71, 72, 73, 74, 75, 76, 77, 78, 79, 80, 81, 82, 83, 84, 85, 86, 87, 88, 89, 90, 91, 92, 93, 94, 95, 96, 97, 98, 99, 100, 101, 102, 103, 104, 105, 106, 107, 108, 109, 110, 111, 112, 113, 114, 115, 116, 117, 118, 119, 120, 121, 122, 123, 124, 125, 126, 127, 128, 129, 130, 131, 132, 133, 134, 135, 136, 137, 138, 139, 140, 141, 142, 143, 144, 145, 146, 147, 148, 149, 150, 151, 152, 153, 154, 155, 156, 157, 158, 159, 160, 161, 162, 163, 164, 165, 166, 167, 168, 169, 170, 171, 172, 173, 174, 175, 176, 177, 178, 179, 180, 181, 182, 183, 184, 185, 186, 187, 188, 189, 190, 191, 192, 193, 194, 195, 196, 197, 198, 199, 200, 201, 202, 203, 204, 205, 206, 207, 208, 209, 210],
      "AcquisitionTime": ["173543.722500", "173545.730000", "173547.737500", "173549.745000", "173551.752500", "173553.762500", "173555.770000", "173557.777500", "173559.785000", "173601.792500", "173603.802500", "173605.810000", "173607.817500", "173609.825000", "173611.835000", "173613.842500", "173615.850000", "173617.857500", "173619.865000", "173621.875000", "173623.882500", "173625.890000", "173627.897500", "173629.905000", "173631.915000", "173633.922500", "173635.930000", "173637.937500", "173639.947500", "173641.955000", "173643.962500", "173645.970000", "173647.977500", "173649.987500", "173651.995000", "173654.002500", "173656.010000", "173658.017500", "173700.027500", "173702.035000", "173704.042500", "173706.050000", "173708.057500", "173710.067500", "173712.075000", "173714.082500", "173716.090000", "173718.100000", "173720.107500", "173722.115000", "173724.122500", "173726.130000", "173728.140000", "173730.147500", "173732.155000", "173734.162500", "173736.170000", "173738.180000", "173740.187500", "173742.195000", "173744.202500", "173746.212500", "173748.220000", "173750.227500", "173752.235000", "173754.242500", "173756.252500", "173758.260000", "173800.267500", "173802.275000", "173804.282500", "173806.292500", "173808.300000", "173810.307500", "173812.315000", "173814.325000", "173816.332500", "173818.340000", "173820.347500", "173822.355000", "173824.365000", "173826.372500", "173828.380000", "173830.387500", "173832.395000", "173834.405000", "173836.412500", "173838.420000", "173840.427500", "173842.435000", "173844.445000", "173846.452500", "173848.460000", "173850.467500", "173852.477500", "173854.485000", "173856.492500", "173858.500000", "173900.507500", "173902.517500", "173904.525000", "173906.532500", "173908.540000", "173910.547500", "173912.557500", "173914.565000", "173916.572500", "173918.580000", "173920.590000", "173922.597500", "173924.605000", "173926.612500", "173928.620000", "173930.630000", "173932.637500", "173934.645000", "173936.652500", "173938.660000", "173940.670000", "173942.677500", "173944.685000", "173946.692500", "173948.702500", "173950.710000", "173952.717500", "173954.725000", "173956.732500", "173958.742500", "174000.750000", "174002.757500", "174004.765000", "174006.772500", "174008.782500", "174010.790000", "174012.797500", "174014.805000", "174016.812500", "174018.822500", "174020.830000", "174022.837500", "174024.845000", "174026.855000", "174028.862500", "174030.870000", "174032.877500", "174034.885000", "174036.895000", "174038.902500", "174040.910000", "174042.917500", "174044.925000", "174046.935000", "174048.942500", "174050.950000", "174052.957500", "174054.967500", "174056.975000", "174058.982500", "174100.990000", "174102.997500", "174105.007500", "174107.015000", "174109.022500", "174111.030000", "174113.037500", "174115.047500", "174117.055000", "174119.062500", "174121.070000", "174123.080000", "174125.087500", "174127.095000", "174129.102500", "174131.110000", "174133.120000", "174135.127500", "174137.135000", "174139.142500", "174141.150000", "174143.160000", "174145.167500", "174147.175000", "174149.182500", "174151.192500", "174153.200000", "174155.207500", "174157.215000", "174159.222500", "174201.232500", "174203.240000", "174205.247500", "174207.255000", "174209.262500", "174211.272500", "174213.280000", "174215.287500", "174217.295000", "174219.302500", "174221.312500", "174223.320000", "174225.327500", "174227.335000", "174229.345000", "174231.352500", "174233.360000", "174235.367500", "174237.375000", "174239.385000", "174241.392500", "174243.400000"],
      "ContentTime": ["173547.750000", "173549.734000", "173551.734000", "173553.734000", "173555.234000", "173557.734000", "173559.734000", "173601.734000", "173603.734000", "173605.734000", "173607.734000", "173609.734000", "173611.734000", "173613.734000", "173615.734000", "173617.234000", "173619.734000", "173621.734000", "173623.734000", "173625.734000", "173627.734000", "173629.734000", "173631.734000", "173633.734000", "173635.734000", "173637.234000", "173639.734000", "173641.734000", "173643.734000", "173645.734000", "173647.734000", "173649.234000", "173651.734000", "173653.734000", "173655.734000", "173657.734000", "173659.734000", "173701.734000", "173703.734000", "173705.734000", "173707.734000", "173709.234000", "173711.734000", "173713.734000", "173715.734000", "173717.734000", "173719.734000", "173721.234000", "173723.734000", "173725.734000", "173727.734000", "173729.734000", "173731.734000", "173733.734000", "173735.734000", "173737.734000", "173739.734000", "173741.234000", "173743.734000", "173745.734000", "173747.734000", "173749.734000", "173751.234000", "173753.234000", "173755.734000", "173757.734000", "173759.734000", "173801.734000", "173803.234000", "173805.734000", "173807.734000", "173809.734000", "173811.734000", "173813.234000", "173815.734000", "173817.734000", "173819.734000", "173821.734000", "173823.734000", "173825.234000", "173827.734000", "173829.734000", "173831.734000", "173833.734000", "173835.234000", "173837.734000", "173839.734000", "173841.734000", "173843.734000", "173845.734000", "173847.734000", "173849.734000", "173851.734000", "173853.734000", "173855.734000", "173857.234000", "173859.734000", "173901.734000", "173903.734000", "173905.734000", "173907.734000", "173909.734000", "173911.734000", "173913.734000", "173915.734000", "173917.734000", "173919.734000", "173921.734000", "173923.734000", "173925.734000", "173927.234000", "173929.234000", "173931.734000", "173933.734000", "173935.734000", "173937.734000", "173939.234000", "173941.734000", "173943.734000", "173945.734000", "173947.734000", "173949.234000", "173951.734000", "173953.734000", "173955.734000", "173957.734000", "173959.234000", "174001.234000", "174003.734000", "174005.734000", "174007.734000", "174009.734000", "174011.734000", "174013.734000", "174015.734000", "174017.734000", "174019.734000", "174021.734000", "174023.734000", "174025.734000", "174027.734000", "174029.734000", "174031.734000", "174033.234000", "174035.734000", "174037.734000", "174039.734000", "174041.734000", "174043.734000", "174045.734000", "174047.734000", "174049.734000", "174051.734000", "174053.234000", "174055.734000", "174057.734000", "174059.734000", "174101.734000", "174103.234000", "174105.234000", "174107.734000", "174109.734000", "174111.734000", "174113.734000", "174115.734000", "174117.734000", "174119.734000", "174121.734000", "174123.734000", "174125.234000", "174127.734000", "174129.734000", "174131.734000", "174133.734000", "174135.734000", "174137.234000", "174139.734000", "174141.734000", "174143.734000", "174145.734000", "174147.734000", "174149.734000", "174151.734000", "174153.734000", "174155.734000", "174157.734000", "174159.734000", "174201.734000", "174203.734000", "174205.734000", "174207.734000", "174209.234000", "174211.734000", "174213.734000", "174215.734000", "174217.734000", "174219.734000", "174221.734000", "174223.734000", "174225.734000", "174227.734000", "174229.234000", "174231.734000", "174233.734000", "174235.734000", "174237.734000", "174239.734000", "174241.234000", "174243.734000", "174245.234000"],
      "InstanceCreationTime": ["173547.750000", "173549.734000", "173551.734000", "173553.734000", "173555.234000", "173557.734000", "173559.734000", "173601.734000", "173603.734000", "173605.734000", "173607.734000", "173609.734000", "173611.734000", "173613.734000", "173615.734000", "173617.234000", "173619.734000", "173621.734000", "173623.734000", "173625.734000", "173627.734000", "173629.734000", "173631.734000", "173633.734000", "173635.734000", "173637.234000", "173639.734000", "173641.734000", "173643.734000", "173645.734000", "173647.734000", "173649.234000", "173651.734000", "173653.734000", "173655.734000", "173657.734000", "173659.734000", "173701.734000", "173703.734000", "173705.734000", "173707.734000", "173709.234000", "173711.734000", "173713.734000", "173715.734000", "173717.734000", "173719.734000", "173721.234000", "173723.734000", "173725.734000", "173727.734000", "173729.734000", "173731.734000", "173733.734000", "173735.734000", "173737.734000", "173739.734000", "173741.234000", "173743.734000", "173745.734000", "173747.734000", "173749.734000", "173751.234000", "173753.234000", "173755.734000", "173757.734000", "173759.734000", "173801.734000", "173803.234000", "173805.734000", "173807.734000", "173809.734000", "173811.734000", "173813.234000", "173815.734000", "173817.734000", "173819.734000", "173821.734000", "173823.734000", "173825.234000", "173827.734000", "173829.734000", "173831.734000", "173833.734000", "173835.234000", "173837.734000", "173839.734000", "173841.734000", "173843.734000", "173845.734000", "173847.734000", "173849.734000", "173851.734000", "173853.734000", "173855.734000", "173857.234000", "173859.734000", "173901.734000", "173903.734000", "173905.734000", "173907.734000", "173909.734000", "173911.734000", "173913.734000", "173915.734000", "173917.734000", "173919.734000", "173921.734000", "173923.734000", "173925.734000", "173927.234000", "173929.234000", "173931.734000", "173933.734000", "173935.734000", "173937.734000", "173939.234000", "173941.734000", "173943.734000", "173945.734000", "173947.734000", "173949.234000", "173951.734000", "173953.734000", "173955.734000", "173957.734000", "173959.234000", "174001.234000", "174003.734000", "174005.734000", "174007.734000", "174009.734000", "174011.734000", "174013.734000", "174015.734000", "174017.734000", "174019.734000", "174021.734000", "174023.734000", "174025.734000", "174027.734000", "174029.734000", "174031.734000", "174033.234000", "174035.734000", "174037.734000", "174039.734000", "174041.734000", "174043.734000", "174045.734000", "174047.734000", "174049.734000", "174051.734000", "174053.234000", "174055.734000", "174057.734000", "174059.734000", "174101.734000", "174103.234000", "174105.234000", "174107.734000", "174109.734000", "174111.734000", "174113.734000", "174115.734000", "174117.734000", "174119.734000", "174121.734000", "174123.734000", "174125.234000", "174127.734000", "174129.734000", "174131.734000", "174133.734000", "174135.734000", "174137.234000", "174139.734000", "174141.734000", "174143.734000", "174145.734000", "174147.734000", "174149.734000", "174151.734000", "174153.734000", "174155.734000", "174157.734000", "174159.734000", "174201.734000", "174203.734000", "174205.734000", "174207.734000", "174209.234000", "174211.734000", "174213.734000", "174215.734000", "174217.734000", "174219.734000", "174221.734000", "174223.734000", "174225.734000", "174227.734000", "174229.234000", "174231.734000", "174233.734000", "174235.734000", "174237.734000", "174239.734000", "174241.234000", "174243.734000", "174245.234000"],
      "InstanceNumber": [1, 2, 3, 4, 5, 6, 7, 8, 9, 10, 11, 12, 13, 14, 15, 16, 17, 18, 19, 20, 21, 22, 23, 24, 25, 26, 27, 28, 29, 30, 31, 32, 33, 34, 35, 36, 37, 38, 39, 40, 41, 42, 43, 44, 45, 46, 47, 48, 49, 50, 51, 52, 53, 54, 55, 56, 57, 58, 59, 60, 61, 62, 63, 64, 65, 66, 67, 68, 69, 70, 71, 72, 73, 74, 75, 76, 77, 78, 79, 80, 81, 82, 83, 84, 85, 86, 87, 88, 89, 90, 91, 92, 93, 94, 95, 96, 97, 98, 99, 100, 101, 102, 103, 104, 105, 106, 107, 108, 109, 110, 111, 112, 113, 114, 115, 116, 117, 118, 119, 120, 121, 122, 123, 124, 125, 126, 127, 128, 129, 130, 131, 132, 133, 134, 135, 136, 137, 138, 139, 140, 141, 142, 143, 144, 145, 146, 147, 148, 149, 150, 151, 152, 153, 154, 155, 156, 157, 158, 159, 160, 161, 162, 163, 164, 165, 166, 167, 168, 169, 170, 171, 172, 173, 174, 175, 176, 177, 178, 179, 180, 181, 182, 183, 184, 185, 186, 187, 188, 189, 190, 191, 192, 193, 194, 195, 196, 197, 198, 199, 200, 201, 202, 203, 204, 205, 206, 207, 208, 209, 210],
      "LargestImagePixelValue": [2002, 1814, 1805, 1853, 1790, 1867, 1781, 1864, 1796, 1783, 1869, 1792, 1779, 1808, 1791, 1938, 1809, 1773, 1811, 1820, 1809, 1787, 1827, 1818, 1795, 1869, 1791, 1888, 1803, 1792, 1774, 1836, 1800, 1772, 1823, 1784, 2077, 1820, 1796, 1825, 1801, 1901, 1810, 1805, 1842, 1849, 1828, 1855, 1807, 1825, 1825, 1924, 1846, 1823, 1839, 1790, 1850, 1800, 1996, 1829, 1839, 1824, 1810, 1859, 1842, 1835, 1823, 1825, 1842, 1816, 1854, 1872, 1828, 1821, 1827, 1849, 1856, 1845, 1928, 1850, 1820, 1878, 1843, 1801, 1927, 1834, 1821, 1849, 1824, 1850, 1828, 1836, 2017, 1828, 1847, 1954, 1827, 1882, 1837, 1832, 1960, 1818, 1849, 1819, 1830, 1854, 2026, 1829, 1851, 1824, 1830, 2048, 1851, 1960, 1817, 1895, 1845, 1839, 1964, 1834, 1909, 1835, 1871, 1852, 1870, 1856, 1858, 1837, 1846, 1876, 1833, 1902, 1909, 1855, 1833, 1866, 1796, 1842, 1883, 1819, 1848, 1845, 1841, 1850, 1846, 1933, 1850, 1854, 1833, 1834, 1859, 2059, 1817, 1857, 1844, 1848, 1850, 1832, 1854, 1850, 2057, 1845, 1934, 1857, 1857, 1829, 1837, 1855, 1872, 1854, 1859, 1841, 1860, 1846, 1816, 1838, 1885, 1826, 1857, 1849, 1839, 1818, 1848, 1832, 1820, 1997, 1857, 1823, 1862, 1912, 1828, 1830, 1845, 1823, 1941, 2172, 1830, 1864, 1846, 1811, 1821, 1965, 1826, 1892, 1921, 1820, 1987, 1784, 1818, 1828],
      "WindowCenter": [750.0, 745.0, 744.0, 743.0, 744.0, 745.0, 743.0, 743.0, 745.0, 744.0, 744.0, 744.0, 745.0, 747.0, 747.0, 746.0, 744.0, 745.0, 746.0, 746.0, 746.0, 745.0, 746.0, 749.0, 749.0, 746.0, 743.0, 743.0, 744.0, 744.0, 743.0, 743.0, 744.0, 744.0, 744.0, 743.0, 743.0, 742.0, 743.0, 745.0, 745.0, 746.0, 746.0, 747.0, 748.0, 746.0, 746.0, 748.0, 748.0, 750.0, 748.0, 746.0, 745.0, 745.0, 744.0, 744.0, 745.0, 744.0, 744.0, 743.0, 743.0, 745.0, 746.0, 748.0, 748.0, 747.0, 748.0, 749.0, 751.0, 749.0, 747.0, 746.0, 745.0, 748.0, 748.0, 746.0, 744.0, 743.0, 743.0, 741.0, 741.0, 743.0, 746.0, 746.0, 747.0, 746.0, 746.0, 747.0, 747.0, 749.0, 750.0, 748.0, 747.0, 745.0, 745.0, 745.0, 745.0, 746.0, 745.0, 745.0, 747.0, 747.0, 748.0, 749.0, 748.0, 749.0, 750.0, 750.0, 751.0, 753.0, 751.0, 749.0, 746.0, 746.0, 745.0, 744.0, 743.0, 743.0, 744.0, 744.0, 744.0, 746.0, 747.0, 748.0, 748.0, 748.0, 749.0, 749.0, 752.0, 751.0, 749.0, 747.0, 747.0, 746.0, 745.0, 745.0, 745.0, 747.0, 747.0, 748.0, 748.0, 747.0, 746.0, 749.0, 751.0, 750.0, 748.0, 749.0, 751.0, 751.0, 749.0, 748.0, 746.0, 746.0, 745.0, 746.0, 748.0, 747.0, 746.0, 745.0, 747.0, 746.0, 746.0, 745.0, 745.0, 746.0, 749.0, 750.0, 749.0, 748.0, 749.0, 752.0, 750.0, 749.0, 748.0, 749.0, 747.0, 746.0, 747.0, 747.0, 748.0, 750.0, 750.0, 749.0, 748.0, 748.0, 746.0, 746.0, 747.0, 748.0, 749.0, 751.0, 753.0, 752.0, 749.0, 749.0, 747.0, 749.0, 749.0, 751.0, 752.0, 750.0, 747.0, 748.0, 748.0, 747.0, 747.0, 748.0, 748.0, 748.0],
      "WindowWidth": [1587.0, 1572.0, 1569.0, 1568.0, 1569.0, 1571.0, 1566.0, 1568.0, 1572.0, 1570.0, 1569.0, 1570.0, 1573.0, 1576.0, 1576.0, 1574.0, 1570.0, 1573.0, 1575.0, 1575.0, 1574.0, 1573.0, 1576.0, 1582.0, 1582.0, 1573.0, 1568.0, 1568.0, 1570.0, 1568.0, 1567.0, 1567.0, 1569.0, 1570.0, 1569.0, 1567.0, 1568.0, 1566.0, 1569.0, 1573.0, 1571.0, 1574.0, 1574.0, 1577.0, 1580.0, 1575.0, 1575.0, 1580.0, 1580.0, 1585.0, 1578.0, 1574.0, 1572.0, 1571.0, 1570.0, 1570.0, 1573.0, 1570.0, 1569.0, 1567.0, 1569.0, 1571.0, 1576.0, 1578.0, 1579.0, 1577.0, 1580.0, 1583.0, 1587.0, 1581.0, 1575.0, 1573.0, 1573.0, 1580.0, 1580.0, 1573.0, 1570.0, 1567.0, 1566.0, 1563.0, 1562.0, 1568.0, 1575.0, 1575.0, 1577.0, 1574.0, 1574.0, 1578.0, 1577.0, 1582.0, 1583.0, 1579.0, 1576.0, 1572.0, 1571.0, 1572.0, 1571.0, 1573.0, 1571.0, 1573.0, 1577.0, 1576.0, 1579.0, 1581.0, 1579.0, 1581.0, 1583.0, 1584.0, 1587.0, 1591.0, 1587.0, 1582.0, 1575.0, 1575.0, 1571.0, 1569.0, 1567.0, 1567.0, 1569.0, 1569.0, 1570.0, 1574.0, 1578.0, 1578.0, 1579.0, 1579.0, 1581.0, 1582.0, 1590.0, 1586.0, 1580.0, 1577.0, 1577.0, 1574.0, 1572.0, 1572.0, 1573.0, 1576.0, 1576.0, 1579.0, 1580.0, 1576.0, 1575.0, 1582.0, 1586.0, 1583.0, 1578.0, 1582.0, 1587.0, 1587.0, 1580.0, 1579.0, 1575.0, 1574.0, 1572.0, 1575.0, 1580.0, 1578.0, 1575.0, 1573.0, 1576.0, 1573.0, 1574.0, 1573.0, 1571.0, 1576.0, 1583.0, 1584.0, 1580.0, 1580.0, 1583.0, 1589.0, 1584.0, 1581.0, 1580.0, 1580.0, 1578.0, 1576.0, 1577.0, 1578.0, 1580.0, 1584.0, 1584.0, 1580.0, 1578.0, 1579.0, 1575.0, 1573.0, 1577.0, 1581.0, 1582.0, 1586.0, 1591.0, 1588.0, 1581.0, 1580.0, 1578.0, 1582.0, 1583.0, 1588.0, 1587.0, 1583.0, 1577.0, 1579.0, 1579.0, 1575.0, 1577.0, 1578.0, 1579.0, 1580.0]
    },
    "slices": {}
  }
}