{
  "AcquisitionMatrixPE": 64,
  "AcquisitionNumber": 1,
  "AcquisitionTime": "10:25:52.860000",
  "BandwidthPerPixelPhaseEncode": 30.637,
  "BaseResolution": 64,
  "BidsGuess": [
    "func",
    "_acq-epfid2_dir-AP_run-5_bold"
],
  "CoilCombinationMethod": "Sum of Squares",
  "CoilString": "C:HEA;HEP",
  "ConversionSoftware": "dcm2niix",
  "ConversionSoftwareVersion": "v1.0.20240202",
  "DerivedVendorReportedEchoSpacing": 0.000510004,
  "DeviceSerialNumber": "35119",
  "DwellTime": 3.5e-06,
  "EchoTime": 0.03,
  "EffectiveEchoSpacing": 0.000510004,
  "FlipAngle": 78,
  "HeudiconvVersion": "1.1.6",
  "ImageComments": "V",
  "ImageOrientationPatientDICOM": [0.998722, 0.028794, 0.041546, 0, 0.821902, -0.569629],
  "ImageOrientationText": "Tra>Cor(-34.7)>Sag(2.9)",
  "ImageType": [
    "ORIGINAL",
    "PRIMARY",
    "M",
    "ND",
    "MOSAIC"
],
  "ImagingFrequency": 123.251792,
  "InPlanePhaseEncodingDirectionDICOM": "COL",
  "InstitutionAddress": "Chaucer Road  15,Cambridge,UK,GB,CB2 2EF",
  "InstitutionName": "MRC-CBU",
  "MRAcquisitionType": "2D",
  "MagneticFieldStrength": 3,
  "Manufacturer": "Siemens",
  "ManufacturersModelName": "TrioTim",
  "MatrixCoilMode": "SENSE",
  "Modality": "MR",
  "NonlinearGradientCorrection": false,
  "PartialFourier": 1,
  "PatientPosition": "HFS",
  "PercentPhaseFOV": 100,
  "PercentSampling": 100,
  "PhaseEncodingDirection": "j-",
  "PhaseEncodingSteps": 64,
  "PhaseResolution": 1,
  "PixelBandwidth": 2230,
  "ProcedureStepDescription": "CBU^Neuroimaging",
  "ProtocolName": "CBU_DWEPI_BOLD210",
  "PulseSequenceDetails": "%SiemensSeq%\\ep2d_bold",
  "ReceiveCoilName": "HeadMatrix",
  "ReconMatrixPE": 64,
  "RepetitionTime": 2,
  "SAR": 0.128869,
  "ScanOptions": "FS",
  "ScanningSequence": "EP",
  "SequenceName": "*epfid2d1_64",
  "SequenceVariant": "SK",
  "SeriesDescription": "CBU_DWEPI_BOLD210",
  "SeriesNumber": 5,
  "ShimSetting": [-7766, -8719, -2071, 695, 287, 360, -262, -104],
  "SliceThickness": 3,
  "SliceTiming": [0, 1.035, 0.0625, 1.095, 0.1225, 1.1575, 0.1825, 1.2175, 0.245, 1.2775, 0.305, 1.34, 0.365, 1.4, 0.4275, 1.46, 0.4875, 1.5225, 0.5475, 1.5825, 0.61, 1.6425, 0.67, 1.705, 0.73, 1.765, 0.7925, 1.825, 0.8525, 1.8875, 0.9125, 1.9475, 0.975],
  "SoftwareVersions": "syngo MR B15",
  "SpacingBetweenSlices": 3.9,
  "StationName": "MRC35119",
  "TaskName": "faceprocessing",
  "TotalReadoutTime": 0.0321303,
  "TxRefAmp": 308.819,
  "dcmmeta_affine": [
    [-2.9961659908294678, 0.0, 0.1971396952867508, 96.60460662841797],
    [-0.08638200163841248, 2.4657061100006104, -2.2187139987945557, -30.852981567382812],
    [0.12463799864053726, 1.708886981010437, 3.2013213634490967, -87.24886322021484],
    [0.0, 0.0, 0.0, 1.0]
],
  "dcmmeta_reorient_transform": [
    [0.0, -1.0, 0.0, 63.0],
    [1.0, 0.0, 0.0, 0.0],
    [0.0, 0.0, 1.0, 0.0],
    [0.0, 0.0, 0.0, 1.0]
],
  "dcmmeta_shape": [64, 64, 33, 210],
  "dcmmeta_slice_dim": 2,
  "dcmmeta_version": 0.6,
  "global": {
    "const": {
      "AcquisitionMatrix": [64, 0, 0, 64],
      "AngioFlag": "N",
      "BitsAllocated": 16,
      "BitsStored": 12,
      "Columns": 384,
      "EchoNumbers": 1,
      "EchoTime": 30.0,
      "EchoTrainLength": 1,
      "FlipAngle": 78.0,
      "HighBit": 11,
      "ImageOrientationPatient": [0.998722, 0.028794, 0.041546, -0.0, 0.821902, -0.569629],
      "ImagePositionPatient": [-575.991163, -532.820577, 273.890855],
      "ImageType": [
        "ORIGINAL",
        "PRIMARY",
        "M",
        "ND",
        "MOSAIC"
],
      "ImagedNucleus": "1H",
      "ImagingFrequency": 123.251792,
      "InPlanePhaseEncodingDirection": "COL",
      "MRAcquisitionType": "2D",
      "MagneticFieldStrength": 3.0,
      "Manufacturer": "SIEMENS",
      "ManufacturerModelName": "TrioTim",
      "Modality": "MR",
      "NumberOfAverages": 1.0,
      "NumberOfPhaseEncodingSteps": 64,
      "PercentPhaseFieldOfView": 100.0,
      "PercentSampling": 100.0,
      "PerformedProcedureStepStartTime": "100102.750000",
      "PhotometricInterpretation": "MONOCHROME2",
      "PixelAspectRatio": [1, 1],
      "PixelBandwidth": 2230.0,
      "PixelRepresentation": 0,
      "PixelSpacing": [3.0, 3.0],
      "ProtocolName": "CBU_DWEPI_BOLD210",
      "RepetitionTime": 2000.0,
      "Rows": 384,
      "SAR": 0.128869,
      "SamplesPerPixel": 1,
      "ScanOptions": "FS",
      "ScanningSequence": "EP",
      "SequenceName": "*epfid2d1_64",
      "SequenceVariant": "SK",
      "SeriesDescription": "CBU_DWEPI_BOLD210",
      "SeriesNumber": 5,
      "SeriesTime": "102556.921000",
      "SliceLocation": -49.183066,
      "SliceThickness": 3.0,
      "SmallestImagePixelValue": 0,
      "SoftwareVersions": "syngo MR B15",
      "SpacingBetweenSlices": 3.9,
      "SpecificCharacterSet": "ISO_IR 100",
      "StudyID": "1",
      "StudyTime": "100102.687000",
      "TransmitCoilName": "Body",
      "VariableFlipAngleFlag": "N",
      "WindowCenterWidthExplanation": "Algo1",
      "dBdt": 0.0},
    "slices": {}
  },
  "time": {
    "samples": {
      "AcquisitionNumber": [1, 2, 3, 4, 5, 6, 7, 8, 9, 10, 11, 12, 13, 14, 15, 16, 17, 18, 19, 20, 21, 22, 23, 24, 25, 26, 27, 28, 29, 30, 31, 32, 33, 34, 35, 36, 37, 38, 39, 40, 41, 42, 43, 44, 45, 46, 47, 48, 49, 50, 51, 52, 53, 54, 55, 56, 57, 58, 59, 60, 61, 62, 63, 64, 65, 66, 67, 68, 69, 70, 71, 72, 73, 74, 75, 76, 77, 78, 79, 80, 81, 82, 83, 84, 85, 86, 87, 88, 89, 90, 91, 92, 93, 94, 95, 96, 97, 98, 99, 100, 101, 102, 103, 104, 105, 106, 107, 108, 109, 110, 111, 112, 113, 114, 115, 116, 117, 118, 119, 120, 121, 122, 123, 124, 125, 126, 127, 128, 129, 130, 131, 132, 133, 134, 135, 136, 137, 138, 139, 140, 141, 142, 143, 144, 145, 146, 147, 148, 149, 150, 151, 152, 153, 154, 155, 156, 157, 158, 159, 160, 161, 162, 163, 164, 165, 166, 167, 168, 169, 170, 171, 172, 173, 174, 175, 176, 177, 178, 179, 180, 181, 182, 183, 184, 185, 186, 187, 188, 189, 190, 191, 192, 193, 194, 195, 196, 197, 198, 199, 200, 201, 202, 203, 204, 205, 206, 207, 208, 209, 210],
      "AcquisitionTime": ["102552.860000", "102554.867500", "102556.877500", "102558.885000", "102600.892500", "102602.900000", "102604.907500", "102606.917500", "102608.925000", "102610.932500", "102612.940000", "102614.950000", "102616.957500", "102618.965000", "102620.972500", "102622.980000", "102624.990000", "102626.997500", "102629.005000", "102631.012500", "102633.020000", "102635.030000", "102637.037500", "102639.045000", "102641.052500", "102643.060000", "102645.070000", "102647.077500", "102649.085000", "102651.092500", "102653.102500", "102655.110000", "102657.117500", "102659.125000", "102701.132500", "102703.142500", "102705.150000", "102707.157500", "102709.165000", "102711.172500", "102713.182500", "102715.190000", "102717.197500", "102719.205000", "102721.215000", "102723.222500", "102725.230000", "102727.237500", "102729.245000", "102731.255000", "102733.262500", "102735.270000", "102737.277500", "102739.285000", "102741.295000", "102743.302500", "102745.310000", "102747.317500", "102749.327500", "102751.335000", "102753.342500", "102755.350000", "102757.357500", "102759.367500", "102801.375000", "102803.382500", "102805.390000", "102807.397500", "102809.407500", "102811.415000", "102813.422500", "102815.430000", "102817.437500", "102819.447500", "102821.455000", "102823.462500", "102825.470000", "102827.480000", "102829.487500", "102831.495000", "102833.502500", "102835.510000", "102837.520000", "102839.527500", "102841.535000", "102843.542500", "102845.550000", "102847.560000", "102849.567500", "102851.575000", "102853.582500", "102855.592500", "102857.600000", "102859.607500", "102901.615000", "102903.622500", "102905.632500", "102907.640000", "102909.647500", "102911.655000", "102913.662500", "102915.672500", "102917.680000", "102919.687500", "102921.695000", "102923.705000", "102925.712500", "102927.720000", "102929.727500", "102931.735000", "102933.745000", "102935.752500", "102937.760000", "102939.767500", "102941.775000", "102943.785000", "102945.792500", "102947.800000", "102949.807500", "102951.815000", "102953.825000", "102955.832500", "102957.840000", "102959.847500", "103001.857500", "103003.865000", "103005.872500", "103007.880000", "103009.887500", "103011.897500", "103013.905000", "103015.912500", "103017.920000", "103019.927500", "103021.937500", "103023.945000", "103025.952500", "103027.960000", "103029.970000", "103031.977500", "103033.985000", "103035.992500", "103038.000000", "103040.010000", "103042.017500", "103044.025000", "103046.032500", "103048.040000", "103050.050000", "103052.057500", "103054.065000", "103056.072500", "103058.082500", "103100.090000", "103102.097500", "103104.105000", "103106.112500", "103108.122500", "103110.130000", "103112.137500", "103114.145000", "103116.152500", "103118.162500", "103120.170000", "103122.177500", "103124.185000", "103126.195000", "103128.202500", "103130.210000", "103132.217500", "103134.225000", "103136.235000", "103138.242500", "103140.250000", "103142.257500", "103144.265000", "103146.275000", "103148.282500", "103150.290000", "103152.297500", "103154.305000", "103156.315000", "103158.322500", "103200.330000", "103202.337500", "103204.347500", "103206.355000", "103208.362500", "103210.370000", "103212.377500", "103214.387500", "103216.395000", "103218.402500", "103220.410000", "103222.417500", "103224.427500", "103226.435000", "103228.442500", "103230.450000", "103232.460000", "103234.467500", "103236.475000", "103238.482500", "103240.490000", "103242.500000", "103244.507500", "103246.515000", "103248.522500", "103250.530000", "103252.540000"],
      "ContentTime": ["102556.937000", "102558.921000", "102600.921000", "102602.921000", "102604.921000", "102606.921000", "102608.921000", "102610.921000", "102612.921000", "102614.921000", "102616.921000", "102618.921000", "102620.921000", "102622.921000", "102624.921000", "102626.921000", "102628.921000", "102630.921000", "102632.921000", "102634.921000", "102636.921000", "102638.921000", "102640.921000", "102642.921000", "102644.921000", "102646.921000", "102648.921000", "102650.921000", "102652.921000", "102654.921000", "102656.921000", "102658.921000", "102700.921000", "102702.921000", "102704.921000", "102706.921000", "102708.921000", "102710.921000", "102712.921000", "102714.921000", "102716.921000", "102718.921000", "102720.921000", "102722.921000", "102724.921000", "102726.921000", "102728.921000", "102730.921000", "102732.921000", "102734.921000", "102736.921000", "102738.921000", "102740.921000", "102742.921000", "102744.921000", "102746.921000", "102748.921000", "102750.921000", "102752.921000", "102754.921000", "102756.921000", "102758.921000", "102800.921000", "102802.921000", "102804.921000", "102806.921000", "102808.921000", "102810.921000", "102812.921000", "102814.921000", "102816.921000", "102818.921000", "102820.921000", "102822.921000", "102824.921000", "102826.921000", "102828.921000", "102830.921000", "102832.921000", "102834.921000", "102836.921000", "102838.921000", "102840.921000", "102842.921000", "102844.921000", "102846.921000", "102848.921000", "102850.921000", "102852.921000", "102854.921000", "102856.921000", "102858.921000", "102900.921000", "102902.921000", "102904.921000", "102906.921000", "102908.921000", "102910.921000", "102912.921000", "102914.921000", "102916.921000", "102918.921000", "102920.921000", "102922.921000", "102924.921000", "102926.921000", "102928.921000", "102930.921000", "102932.921000", "102934.921000", "102936.921000", "102938.921000", "102940.921000", "102942.921000", "102944.921000", "102946.921000", "102948.921000", "102950.921000", "102952.921000", "102954.921000", "102956.921000", "102958.921000", "103000.921000", "103002.921000", "103004.921000", "103006.921000", "103008.921000", "103010.921000", "103012.921000", "103014.921000", "103016.921000", "103018.921000", "103020.921000", "103022.921000", "103024.921000", "103026.921000", "103028.921000", "103030.921000", "103032.921000", "103034.921000", "103036.921000", "103038.921000", "103040.921000", "103042.921000", "103044.921000", "103046.921000", "103048.921000", "103050.921000", "103052.921000", "103054.921000", "103056.921000", "103058.921000", "103100.921000", "103102.921000", "103104.921000", "103106.921000", "103108.921000", "103110.921000", "103112.921000", "103114.921000", "103116.921000", "103118.921000", "103120.921000", "103122.921000", "103124.921000", "103126.921000", "103128.921000", "103130.921000", "103132.921000", "103134.921000", "103136.921000", "103138.921000", "103140.921000", "103142.921000", "103144.921000", "103146.921000", "103148.921000", "103150.921000", "103152.921000", "103154.921000", "103156.921000", "103158.921000", "103200.921000", "103202.921000", "103204.921000", "103206.921000", "103208.921000", "103210.921000", "103212.921000", "103214.921000", "103216.921000", "103218.921000", "103220.921000", "103222.921000", "103224.921000", "103226.921000", "103228.921000", "103230.921000", "103232.921000", "103234.921000", "103236.921000", "103238.921000", "103240.921000", "103242.921000", "103244.921000", "103246.921000", "103248.921000", "103250.921000", "103252.921000", "103254.500000"],
      "InstanceCreationTime": ["102556.937000", "102558.921000", "102600.921000", "102602.921000", "102604.921000", "102606.921000", "102608.921000", "102610.921000", "102612.921000", "102614.921000", "102616.921000", "102618.921000", "102620.921000", "102622.921000", "102624.921000", "102626.921000", "102628.921000", "102630.921000", "102632.921000", "102634.921000", "102636.921000", "102638.921000", "102640.921000", "102642.921000", "102644.921000", "102646.921000", "102648.921000", "102650.921000", "102652.921000", "102654.921000", "102656.921000", "102658.921000", "102700.921000", "102702.921000", "102704.921000", "102706.921000", "102708.921000", "102710.921000", "102712.921000", "102714.921000", "102716.921000", "102718.921000", "102720.921000", "102722.921000", "102724.921000", "102726.921000", "102728.921000", "102730.921000", "102732.921000", "102734.921000", "102736.921000", "102738.921000", "102740.921000", "102742.921000", "102744.921000", "102746.921000", "102748.921000", "102750.921000", "102752.921000", "102754.921000", "102756.921000", "102758.921000", "102800.921000", "102802.921000", "102804.921000", "102806.921000", "102808.921000", "102810.921000", "102812.921000", "102814.921000", "102816.921000", "102818.921000", "102820.921000", "102822.921000", "102824.921000", "102826.921000", "102828.921000", "102830.921000", "102832.921000", "102834.921000", "102836.921000", "102838.921000", "102840.921000", "102842.921000", "102844.921000", "102846.921000", "102848.921000", "102850.921000", "102852.921000", "102854.921000", "102856.921000", "102858.921000", "102900.921000", "102902.921000", "102904.921000", "102906.921000", "102908.921000", "102910.921000", "102912.921000", "102914.921000", "102916.921000", "102918.921000", "102920.921000", "102922.921000", "102924.921000", "102926.921000", "102928.921000", "102930.921000", "102932.921000", "102934.921000", "102936.921000", "102938.921000", "102940.921000", "102942.921000", "102944.921000", "102946.921000", "102948.921000", "102950.921000", "102952.921000", "102954.921000", "102956.921000", "102958.921000", "103000.921000", "103002.921000", "103004.921000", "103006.921000", "103008.921000", "103010.921000", "103012.921000", "103014.921000", "103016.921000", "103018.921000", "103020.921000", "103022.921000", "103024.921000", "103026.921000", "103028.921000", "103030.921000", "103032.921000", "103034.921000", "103036.921000", "103038.921000", "103040.921000", "103042.921000", "103044.921000", "103046.921000", "103048.921000", "103050.921000", "103052.921000", "103054.921000", "103056.921000", "103058.921000", "103100.921000", "103102.921000", "103104.921000", "103106.921000", "103108.921000", "103110.921000", "103112.921000", "103114.921000", "103116.921000", "103118.921000", "103120.921000", "103122.921000", "103124.921000", "103126.921000", "103128.921000", "103130.921000", "103132.921000", "103134.921000", "103136.921000", "103138.921000", "103140.921000", "103142.921000", "103144.921000", "103146.921000", "103148.921000", "103150.921000", "103152.921000", "103154.921000", "103156.921000", "103158.921000", "103200.921000", "103202.921000", "103204.921000", "103206.921000", "103208.921000", "103210.921000", "103212.921000", "103214.921000", "103216.921000", "103218.921000", "103220.921000", "103222.921000", "103224.921000", "103226.921000", "103228.921000", "103230.921000", "103232.921000", "103234.921000", "103236.921000", "103238.921000", "103240.921000", "103242.921000", "103244.921000", "103246.921000", "103248.921000", "103250.921000", "103252.921000", "103254.500000"],
      "InstanceNumber": [1, 2, 3, 4, 5, 6, 7, 8, 9, 10, 11, 12, 13, 14, 15, 16, 17, 18, 19, 20, 21, 22, 23, 24, 25, 26, 27, 28, 29, 30, 31, 32, 33, 34, 35, 36, 37, 38, 39, 40, 41, 42, 43, 44, 45, 46, 47, 48, 49, 50, 51, 52, 53, 54, 55, 56, 57, 58, 59, 60, 61, 62, 63, 64, 65, 66, 67, 68, 69, 70, 71, 72, 73, 74, 75, 76, 77, 78, 79, 80, 81, 82, 83, 84, 85, 86, 87, 88, 89, 90, 91, 92, 93, 94, 95, 96, 97, 98, 99, 100, 101, 102, 103, 104, 105, 106, 107, 108, 109, 110, 111, 112, 113, 114, 115, 116, 117, 118, 119, 120, 121, 122, 123, 124, 125, 126, 127, 128, 129, 130, 131, 132, 133, 134, 135, 136, 137, 138, 139, 140, 141, 142, 143, 144, 145, 146, 147, 148, 149, 150, 151, 152, 153, 154, 155, 156, 157, 158, 159, 160, 161, 162, 163, 164, 165, 166, 167, 168, 169, 170, 171, 172, 173, 174, 175, 176, 177, 178, 179, 180, 181, 182, 183, 184, 185, 186, 187, 188, 189, 190, 191, 192, 193, 194, 195, 196, 197, 198, 199, 200, 201, 202, 203, 204, 205, 206, 207, 208, 209, 210],
      "LargestImagePixelValue": [2031, 1914, 1916, 1904, 1904, 1899, 1895, 1908, 1880, 1897, 1892, 1881, 1889, 1869, 1897, 1888, 1888, 1900, 1894, 1901, 1915, 1886, 1885, 1905, 1908, 1880, 1893, 1896, 1882, 1896, 1902, 1903, 1897, 1896, 1882, 1898, 1921, 1892, 1901, 1896, 1893, 1905, 1897, 1911, 1908, 1892, 1910, 1901, 1891, 1899, 1893, 1899, 1909, 1907, 1903, 1894, 1917, 1920, 1885, 1893, 1908, 1898, 1919, 1901, 1912, 1914, 1903, 1895, 1894, 1905, 1915, 1910, 1911, 1905, 1896, 1919, 1911, 1907, 1921, 1905, 1899, 1922, 1913, 1908, 1904, 1911, 1902, 1912, 1908, 1913, 1917, 1910, 1900, 1908, 1919, 1898, 1907, 1904, 1914, 1907, 1921, 1921, 1913, 1907, 1918, 1910, 1905, 1895, 1901, 1911, 1924, 1912, 1912, 1927, 1904, 1917, 1921, 1911, 1905, 1913, 1911, 1919, 1900, 1903, 1896, 1920, 1922, 1926, 1889, 1876, 1918, 1920, 1934, 1899, 1926, 1922, 1920, 1914, 1902, 1941, 1915, 1918, 1914, 1915, 1894, 1900, 1914, 1897, 1922, 1919, 1912, 1916, 1920, 1917, 1923, 1925, 1921, 1924, 1914, 1893, 1918, 1920, 1922, 1925, 1905, 1911, 1914, 1918, 1924, 1919, 1911, 1928, 1906, 1924, 1911, 1921, 1905, 1889, 1896, 1901, 1925, 1920, 1897, 1907, 1902, 1905, 1921, 1919, 1909, 1923, 1925, 1937, 1917, 1918, 1919, 1914, 1929, 1908, 1926, 1917, 1923, 1904, 1909, 1909, 1912, 1923, 1915, 1930, 1903, 1917],
      "WindowCenter": [757.0, 752.0, 751.0, 751.0, 751.0, 750.0, 750.0, 749.0, 749.0, 750.0, 750.0, 750.0, 749.0, 749.0, 750.0, 748.0, 749.0, 749.0, 749.0, 750.0, 750.0, 750.0, 749.0, 750.0, 750.0, 750.0, 750.0, 749.0, 750.0, 749.0, 749.0, 748.0, 749.0, 749.0, 749.0, 750.0, 750.0, 750.0, 749.0, 749.0, 750.0, 750.0, 749.0, 749.0, 749.0, 749.0, 750.0, 749.0, 750.0, 750.0, 750.0, 751.0, 751.0, 751.0, 750.0, 749.0, 750.0, 750.0, 751.0, 751.0, 751.0, 750.0, 749.0, 749.0, 750.0, 750.0, 750.0, 750.0, 751.0, 751.0, 750.0, 751.0, 751.0, 752.0, 751.0, 750.0, 750.0, 750.0, 751.0, 751.0, 751.0, 751.0, 750.0, 750.0, 750.0, 751.0, 751.0, 750.0, 750.0, 750.0, 750.0, 751.0, 751.0, 751.0, 751.0, 751.0, 752.0, 751.0, 750.0, 750.0, 750.0, 751.0, 750.0, 749.0, 749.0, 749.0, 749.0, 750.0, 749.0, 749.0, 749.0, 750.0, 750.0, 751.0, 751.0, 751.0, 752.0, 752.0, 751.0, 751.0, 751.0, 752.0, 752.0, 752.0, 751.0, 751.0, 750.0, 751.0, 752.0, 752.0, 751.0, 752.0, 751.0, 751.0, 752.0, 751.0, 751.0, 751.0, 752.0, 752.0, 751.0, 751.0, 751.0, 752.0, 751.0, 751.0, 751.0, 751.0, 751.0, 752.0, 752.0, 753.0, 753.0, 753.0, 752.0, 752.0, 752.0, 754.0, 754.0, 753.0, 752.0, 751.0, 752.0, 751.0, 752.0, 752.0, 752.0, 752.0, 751.0, 752.0, 753.0, 752.0, 752.0, 752.0, 751.0, 752.0, 752.0, 752.0, 751.0, 751.0, 751.0, 752.0, 752.0, 753.0, 753.0, 752.0, 752.0, 753.0, 753.0, 752.0, 752.0, 751.0, 751.0, 753.0, 753.0, 754.0, 754.0, 754.0, 754.0, 754.0, 754.0, 755.0, 755.0, 754.0, 753.0, 753.0, 754.0, 755.0, 755.0, 754.0],
      "WindowWidth": [1615.0, 1600.0, 1597.0, 1596.0, 1595.0, 1594.0, 1593.0, 1591.0, 1592.0, 1593.0, 1594.0, 1593.0, 1592.0, 1592.0, 1593.0, 1590.0, 1591.0, 1591.0, 1593.0, 1595.0, 1594.0, 1594.0, 1592.0, 1593.0, 1593.0, 1593.0, 1593.0, 1592.0, 1594.0, 1592.0, 1592.0, 1590.0, 1592.0, 1593.0, 1592.0, 1593.0, 1593.0, 1593.0, 1592.0, 1592.0, 1594.0, 1593.0, 1593.0, 1592.0, 1592.0, 1591.0, 1593.0, 1593.0, 1594.0, 1593.0, 1593.0, 1596.0, 1596.0, 1596.0, 1594.0, 1592.0, 1593.0, 1593.0, 1596.0, 1596.0, 1597.0, 1595.0, 1592.0, 1592.0, 1594.0, 1594.0, 1594.0, 1593.0, 1596.0, 1596.0, 1595.0, 1596.0, 1596.0, 1598.0, 1596.0, 1594.0, 1594.0, 1594.0, 1596.0, 1597.0, 1596.0, 1596.0, 1593.0, 1595.0, 1595.0, 1596.0, 1596.0, 1594.0, 1595.0, 1595.0, 1595.0, 1598.0, 1596.0, 1596.0, 1596.0, 1597.0, 1598.0, 1596.0, 1595.0, 1594.0, 1595.0, 1597.0, 1594.0, 1592.0, 1591.0, 1592.0, 1592.0, 1593.0, 1591.0, 1592.0, 1592.0, 1594.0, 1595.0, 1596.0, 1597.0, 1596.0, 1598.0, 1598.0, 1598.0, 1597.0, 1596.0, 1598.0, 1600.0, 1599.0, 1598.0, 1595.0, 1595.0, 1596.0, 1598.0, 1598.0, 1597.0, 1598.0, 1597.0, 1598.0, 1598.0, 1597.0, 1597.0, 1597.0, 1598.0, 1598.0, 1597.0, 1597.0, 1596.0, 1598.0, 1596.0, 1596.0, 1595.0, 1597.0, 1597.0, 1599.0, 1600.0, 1601.0, 1602.0, 1601.0, 1598.0, 1599.0, 1599.0, 1603.0, 1604.0, 1602.0, 1600.0, 1597.0, 1598.0, 1596.0, 1598.0, 1600.0, 1599.0, 1598.0, 1597.0, 1599.0, 1601.0, 1600.0, 1599.0, 1598.0, 1597.0, 1598.0, 1598.0, 1598.0, 1595.0, 1595.0, 1597.0, 1600.0, 1599.0, 1601.0, 1600.0, 1600.0, 1600.0, 1600.0, 1601.0, 1600.0, 1599.0, 1597.0, 1597.0, 1601.0, 1602.0, 1603.0, 1603.0, 1604.0, 1603.0, 1603.0, 1604.0, 1605.0, 1605.0, 1603.0, 1602.0, 1600.0, 1604.0, 1605.0, 1607.0, 1603.0]
    },
    "slices": {}
  }
}