{
  "AcquisitionMatrixPE": 64,
  "AcquisitionNumber": 1,
  "AcquisitionTime": "10:41:7.972500",
  "BandwidthPerPixelPhaseEncode": 30.637,
  "BaseResolution": 64,
  "BidsGuess": [
    "func",
    "_acq-epfid2_dir-AP_run-7_bold"
],
  "CoilCombinationMethod": "Sum of Squares",
  "CoilString": "C:HEA;HEP",
  "ConversionSoftware": "dcm2niix",
  "ConversionSoftwareVersion": "v1.0.20240202",
  "DerivedVendorReportedEchoSpacing": 0.000510004,
  "DeviceSerialNumber": "35119",
  "DwellTime": 3.5e-06,
  "EchoTime": 0.03,
  "EffectiveEchoSpacing": 0.000510004,
  "FlipAngle": 78,
  "HeudiconvVersion": "1.1.6",
  "ImageComments": "V",
  "ImageOrientationPatientDICOM": [0.998722, 0.028794, 0.041546, 0, 0.821902, -0.569629],
  "ImageOrientationText": "Tra>Cor(-34.7)>Sag(2.9)",
  "ImageType": [
    "ORIGINAL",
    "PRIMARY",
    "M",
    "ND",
    "MOSAIC"
],
  "ImagingFrequency": 123.251792,
  "InPlanePhaseEncodingDirectionDICOM": "COL",
  "InstitutionAddress": "Chaucer Road  15,Cambridge,UK,GB,CB2 2EF",
  "InstitutionName": "MRC-CBU",
  "MRAcquisitionType": "2D",
  "MagneticFieldStrength": 3,
  "Manufacturer": "Siemens",
  "ManufacturersModelName": "TrioTim",
  "MatrixCoilMode": "SENSE",
  "Modality": "MR",
  "NonlinearGradientCorrection": false,
  "PartialFourier": 1,
  "PatientPosition": "HFS",
  "PercentPhaseFOV": 100,
  "PercentSampling": 100,
  "PhaseEncodingDirection": "j-",
  "PhaseEncodingSteps": 64,
  "PhaseResolution": 1,
  "PixelBandwidth": 2230,
  "ProcedureStepDescription": "CBU^Neuroimaging",
  "ProtocolName": "CBU_DWEPI_BOLD210",
  "PulseSequenceDetails": "%SiemensSeq%\\ep2d_bold",
  "ReceiveCoilName": "HeadMatrix",
  "ReconMatrixPE": 64,
  "RepetitionTime": 2,
  "SAR": 0.128869,
  "ScanOptions": "FS",
  "ScanningSequence": "EP",
  "SequenceName": "*epfid2d1_64",
  "SequenceVariant": "SK",
  "SeriesDescription": "CBU_DWEPI_BOLD210",
  "SeriesNumber": 7,
  "ShimSetting": [-7766, -8719, -2071, 695, 287, 360, -262, -104],
  "SliceThickness": 3,
  "SliceTiming": [0, 1.035, 0.06, 1.095, 0.1225, 1.155, 0.1825, 1.2175, 0.2425, 1.2775, 0.305, 1.3375, 0.365, 1.4, 0.425, 1.46, 0.4875, 1.52, 0.5475, 1.5825, 0.6075, 1.6425, 0.67, 1.7025, 0.73, 1.765, 0.79, 1.825, 0.8525, 1.885, 0.9125, 1.9475, 0.9725],
  "SoftwareVersions": "syngo MR B15",
  "SpacingBetweenSlices": 3.9,
  "StationName": "MRC35119",
  "TaskName": "faceprocessing",
  "TotalReadoutTime": 0.0321303,
  "TxRefAmp": 308.819,
  "dcmmeta_affine": [
    [-2.9961659908294678, 0.0, 0.1971396952867508, 96.60460662841797],
    [-0.08638200163841248, 2.4657061100006104, -2.2187139987945557, -30.852981567382812],
    [0.12463799864053726, 1.708886981010437, 3.2013213634490967, -87.24886322021484],
    [0.0, 0.0, 0.0, 1.0]
],
  "dcmmeta_reorient_transform": [
    [0.0, -1.0, 0.0, 63.0],
    [1.0, 0.0, 0.0, 0.0],
    [0.0, 0.0, 1.0, 0.0],
    [0.0, 0.0, 0.0, 1.0]
],
  "dcmmeta_shape": [64, 64, 33, 210],
  "dcmmeta_slice_dim": 2,
  "dcmmeta_version": 0.6,
  "global": {
    "const": {
      "AcquisitionMatrix": [64, 0, 0, 64],
      "AngioFlag": "N",
      "BitsAllocated": 16,
      "BitsStored": 12,
      "Columns": 384,
      "EchoNumbers": 1,
      "EchoTime": 30.0,
      "EchoTrainLength": 1,
      "FlipAngle": 78.0,
      "HighBit": 11,
      "ImageOrientationPatient": [0.998722, 0.028794, 0.041546, -0.0, 0.821902, -0.569629],
      "ImagePositionPatient": [-575.991163, -532.820577, 273.890855],
      "ImageType": [
        "ORIGINAL",
        "PRIMARY",
        "M",
        "ND",
        "MOSAIC"
],
      "ImagedNucleus": "1H",
      "ImagingFrequency": 123.251792,
      "InPlanePhaseEncodingDirection": "COL",
      "MRAcquisitionType": "2D",
      "MagneticFieldStrength": 3.0,
      "Manufacturer": "SIEMENS",
      "ManufacturerModelName": "TrioTim",
      "Modality": "MR",
      "NumberOfAverages": 1.0,
      "NumberOfPhaseEncodingSteps": 64,
      "PercentPhaseFieldOfView": 100.0,
      "PercentSampling": 100.0,
      "PerformedProcedureStepStartTime": "100102.750000",
      "PhotometricInterpretation": "MONOCHROME2",
      "PixelAspectRatio": [1, 1],
      "PixelBandwidth": 2230.0,
      "PixelRepresentation": 0,
      "PixelSpacing": [3.0, 3.0],
      "ProtocolName": "CBU_DWEPI_BOLD210",
      "RepetitionTime": 2000.0,
      "Rows": 384,
      "SAR": 0.128869,
      "SamplesPerPixel": 1,
      "ScanOptions": "FS",
      "ScanningSequence": "EP",
      "SequenceName": "*epfid2d1_64",
      "SequenceVariant": "SK",
      "SeriesDescription": "CBU_DWEPI_BOLD210",
      "SeriesNumber": 7,
      "SeriesTime": "104111.328000",
      "SliceLocation": -49.183066,
      "SliceThickness": 3.0,
      "SmallestImagePixelValue": 0,
      "SoftwareVersions": "syngo MR B15",
      "SpacingBetweenSlices": 3.9,
      "SpecificCharacterSet": "ISO_IR 100",
      "StudyID": "1",
      "StudyTime": "100102.687000",
      "TransmitCoilName": "Body",
      "VariableFlipAngleFlag": "N",
      "WindowCenterWidthExplanation": "Algo1",
      "dBdt": 0.0},
    "slices": {}
  },
  "time": {
    "samples": {
      "AcquisitionNumber": [1, 2, 3, 4, 5, 6, 7, 8, 9, 10, 11, 12, 13, 14, 15, 16, 17, 18, 19, 20, 21, 22, 23, 24, 25, 26, 27, 28, 29, 30, 31, 32, 33, 34, 35, 36, 37, 38, 39, 40, 41, 42, 43, 44, 45, 46, 47, 48, 49, 50, 51, 52, 53, 54, 55, 56, 57, 58, 59, 60, 61, 62, 63, 64, 65, 66, 67, 68, 69, 70, 71, 72, 73, 74, 75, 76, 77, 78, 79, 80, 81, 82, 83, 84, 85, 86, 87, 88, 89, 90, 91, 92, 93, 94, 95, 96, 97, 98, 99, 100, 101, 102, 103, 104, 105, 106, 107, 108, 109, 110, 111, 112, 113, 114, 115, 116, 117, 118, 119, 120, 121, 122, 123, 124, 125, 126, 127, 128, 129, 130, 131, 132, 133, 134, 135, 136, 137, 138, 139, 140, 141, 142, 143, 144, 145, 146, 147, 148, 149, 150, 151, 152, 153, 154, 155, 156, 157, 158, 159, 160, 161, 162, 163, 164, 165, 166, 167, 168, 169, 170, 171, 172, 173, 174, 175, 176, 177, 178, 179, 180, 181, 182, 183, 184, 185, 186, 187, 188, 189, 190, 191, 192, 193, 194, 195, 196, 197, 198, 199, 200, 201, 202, 203, 204, 205, 206, 207, 208, 209, 210],
      "AcquisitionTime": ["104107.972500", "104109.980000", "104111.990000", "104113.997500", "104116.005000", "104118.012500", "104120.020000", "104122.030000", "104124.037500", "104126.045000", "104128.052500", "104130.060000", "104132.070000", "104134.077500", "104136.085000", "104138.092500", "104140.100000", "104142.110000", "104144.117500", "104146.125000", "104148.132500", "104150.142500", "104152.150000", "104154.157500", "104156.165000", "104158.172500", "104200.182500", "104202.190000", "104204.197500", "104206.205000", "104208.212500", "104210.222500", "104212.230000", "104214.237500", "104216.245000", "104218.255000", "104220.262500", "104222.270000", "104224.277500", "104226.285000", "104228.295000", "104230.302500", "104232.310000", "104234.317500", "104236.325000", "104238.335000", "104240.342500", "104242.350000", "104244.357500", "104246.367500", "104248.375000", "104250.382500", "104252.390000", "104254.397500", "104256.407500", "104258.415000", "104300.422500", "104302.430000", "104304.437500", "104306.447500", "104308.455000", "104310.462500", "104312.470000", "104314.477500", "104316.487500", "104318.495000", "104320.502500", "104322.510000", "104324.520000", "104326.527500", "104328.535000", "104330.542500", "104332.550000", "104334.560000", "104336.567500", "104338.575000", "104340.582500", "104342.590000", "104344.600000", "104346.607500", "104348.615000", "104350.622500", "104352.632500", "104354.640000", "104356.647500", "104358.655000", "104400.662500", "104402.672500", "104404.680000", "104406.687500", "104408.695000", "104410.702500", "104412.712500", "104414.720000", "104416.727500", "104418.735000", "104420.745000", "104422.752500", "104424.760000", "104426.767500", "104428.775000", "104430.785000", "104432.792500", "104434.800000", "104436.807500", "104438.815000", "104440.825000", "104442.832500", "104444.840000", "104446.847500", "104448.855000", "104450.865000", "104452.872500", "104454.880000", "104456.887500", "104458.897500", "104500.905000", "104502.912500", "104504.920000", "104506.927500", "104508.937500", "104510.945000", "104512.952500", "104514.960000", "104516.967500", "104518.977500", "104520.985000", "104522.992500", "104525.000000", "104527.010000", "104529.017500", "104531.025000", "104533.032500", "104535.040000", "104537.050000", "104539.057500", "104541.065000", "104543.072500", "104545.080000", "104547.090000", "104549.097500", "104551.105000", "104553.112500", "104555.122500", "104557.130000", "104559.137500", "104601.145000", "104603.152500", "104605.162500", "104607.170000", "104609.177500", "104611.185000", "104613.192500", "104615.202500", "104617.210000", "104619.217500", "104621.225000", "104623.232500", "104625.242500", "104627.250000", "104629.257500", "104631.265000", "104633.275000", "104635.282500", "104637.290000", "104639.297500", "104641.305000", "104643.315000", "104645.322500", "104647.330000", "104649.337500", "104651.345000", "104653.355000", "104655.362500", "104657.370000", "104659.377500", "104701.387500", "104703.395000", "104705.402500", "104707.410000", "104709.417500", "104711.427500", "104713.435000", "104715.442500", "104717.450000", "104719.457500", "104721.467500", "104723.475000", "104725.482500", "104727.490000", "104729.500000", "104731.507500", "104733.515000", "104735.522500", "104737.530000", "104739.540000", "104741.547500", "104743.555000", "104745.562500", "104747.570000", "104749.580000", "104751.587500", "104753.595000", "104755.602500", "104757.612500", "104759.620000", "104801.627500", "104803.635000", "104805.642500", "104807.652500"],
      "ContentTime": ["104111.328000", "104113.328000", "104115.328000", "104117.328000", "104119.328000", "104121.328000", "104123.328000", "104125.328000", "104127.328000", "104129.328000", "104131.328000", "104133.328000", "104135.328000", "104137.328000", "104139.328000", "104141.328000", "104143.328000", "104145.328000", "104147.328000", "104149.328000", "104151.328000", "104153.328000", "104155.328000", "104157.328000", "104159.328000", "104201.328000", "104203.328000", "104205.328000", "104207.328000", "104209.328000", "104211.328000", "104213.328000", "104215.328000", "104217.328000", "104219.328000", "104221.328000", "104223.328000", "104225.328000", "104227.328000", "104229.328000", "104231.328000", "104233.328000", "104235.328000", "104237.328000", "104239.328000", "104241.328000", "104243.328000", "104245.328000", "104247.328000", "104249.328000", "104251.328000", "104253.328000", "104255.328000", "104257.328000", "104259.328000", "104301.328000", "104303.328000", "104305.328000", "104307.328000", "104309.328000", "104311.328000", "104313.328000", "104315.328000", "104317.328000", "104319.328000", "104321.328000", "104323.328000", "104325.328000", "104327.328000", "104329.328000", "104331.328000", "104333.328000", "104335.328000", "104337.328000", "104339.328000", "104341.328000", "104343.328000", "104345.328000", "104347.328000", "104349.328000", "104351.328000", "104353.328000", "104355.328000", "104357.328000", "104359.328000", "104401.328000", "104403.328000", "104405.328000", "104407.328000", "104409.328000", "104411.328000", "104413.328000", "104415.328000", "104417.328000", "104419.328000", "104421.328000", "104423.328000", "104425.328000", "104427.328000", "104429.328000", "104431.328000", "104433.328000", "104435.328000", "104437.328000", "104439.328000", "104441.328000", "104443.328000", "104445.328000", "104447.328000", "104449.328000", "104451.328000", "104453.328000", "104455.328000", "104457.328000", "104459.328000", "104501.328000", "104503.328000", "104505.328000", "104507.328000", "104509.328000", "104511.328000", "104513.328000", "104515.328000", "104517.328000", "104519.328000", "104521.328000", "104523.328000", "104525.328000", "104527.328000", "104529.328000", "104531.328000", "104533.328000", "104535.328000", "104537.328000", "104539.328000", "104541.328000", "104543.328000", "104545.328000", "104547.328000", "104549.328000", "104551.328000", "104553.328000", "104555.328000", "104557.328000", "104559.328000", "104601.328000", "104603.328000", "104605.328000", "104607.328000", "104609.328000", "104611.328000", "104613.328000", "104615.328000", "104617.328000", "104619.328000", "104621.328000", "104623.328000", "104625.328000", "104627.328000", "104629.328000", "104631.328000", "104633.328000", "104635.328000", "104637.328000", "104639.328000", "104641.328000", "104643.328000", "104645.328000", "104647.328000", "104649.328000", "104651.328000", "104653.328000", "104655.328000", "104657.328000", "104659.328000", "104701.328000", "104703.328000", "104705.328000", "104707.328000", "104709.328000", "104711.328000", "104713.328000", "104715.328000", "104717.328000", "104719.328000", "104721.328000", "104723.328000", "104725.328000", "104727.328000", "104729.328000", "104731.328000", "104733.328000", "104735.328000", "104737.328000", "104739.328000", "104741.328000", "104743.328000", "104745.328000", "104747.328000", "104749.328000", "104751.328000", "104753.328000", "104755.328000", "104757.328000", "104759.328000", "104801.328000", "104803.328000", "104805.328000", "104807.328000", "104808.875000"],
      "InstanceCreationTime": ["104111.328000", "104113.328000", "104115.328000", "104117.328000", "104119.328000", "104121.328000", "104123.328000", "104125.328000", "104127.328000", "104129.328000", "104131.328000", "104133.328000", "104135.328000", "104137.328000", "104139.328000", "104141.328000", "104143.328000", "104145.328000", "104147.328000", "104149.328000", "104151.328000", "104153.328000", "104155.328000", "104157.328000", "104159.328000", "104201.328000", "104203.328000", "104205.328000", "104207.328000", "104209.328000", "104211.328000", "104213.328000", "104215.328000", "104217.328000", "104219.328000", "104221.328000", "104223.328000", "104225.328000", "104227.328000", "104229.328000", "104231.328000", "104233.328000", "104235.328000", "104237.328000", "104239.328000", "104241.328000", "104243.328000", "104245.328000", "104247.328000", "104249.328000", "104251.328000", "104253.328000", "104255.328000", "104257.328000", "104259.328000", "104301.328000", "104303.328000", "104305.328000", "104307.328000", "104309.328000", "104311.328000", "104313.328000", "104315.328000", "104317.328000", "104319.328000", "104321.328000", "104323.328000", "104325.328000", "104327.328000", "104329.328000", "104331.328000", "104333.328000", "104335.328000", "104337.328000", "104339.328000", "104341.328000", "104343.328000", "104345.328000", "104347.328000", "104349.328000", "104351.328000", "104353.328000", "104355.328000", "104357.328000", "104359.328000", "104401.328000", "104403.328000", "104405.328000", "104407.328000", "104409.328000", "104411.328000", "104413.328000", "104415.328000", "104417.328000", "104419.328000", "104421.328000", "104423.328000", "104425.328000", "104427.328000", "104429.328000", "104431.328000", "104433.328000", "104435.328000", "104437.328000", "104439.328000", "104441.328000", "104443.328000", "104445.328000", "104447.328000", "104449.328000", "104451.328000", "104453.328000", "104455.328000", "104457.328000", "104459.328000", "104501.328000", "104503.328000", "104505.328000", "104507.328000", "104509.328000", "104511.328000", "104513.328000", "104515.328000", "104517.328000", "104519.328000", "104521.328000", "104523.328000", "104525.328000", "104527.328000", "104529.328000", "104531.328000", "104533.328000", "104535.328000", "104537.328000", "104539.328000", "104541.328000", "104543.328000", "104545.328000", "104547.328000", "104549.328000", "104551.328000", "104553.328000", "104555.328000", "104557.328000", "104559.328000", "104601.328000", "104603.328000", "104605.328000", "104607.328000", "104609.328000", "104611.328000", "104613.328000", "104615.328000", "104617.328000", "104619.328000", "104621.328000", "104623.328000", "104625.328000", "104627.328000", "104629.328000", "104631.328000", "104633.328000", "104635.328000", "104637.328000", "104639.328000", "104641.328000", "104643.328000", "104645.328000", "104647.328000", "104649.328000", "104651.328000", "104653.328000", "104655.328000", "104657.328000", "104659.328000", "104701.328000", "104703.328000", "104705.328000", "104707.328000", "104709.328000", "104711.328000", "104713.328000", "104715.328000", "104717.328000", "104719.328000", "104721.328000", "104723.328000", "104725.328000", "104727.328000", "104729.328000", "104731.328000", "104733.328000", "104735.328000", "104737.328000", "104739.328000", "104741.328000", "104743.328000", "104745.328000", "104747.328000", "104749.328000", "104751.328000", "104753.328000", "104755.328000", "104757.328000", "104759.328000", "104801.328000", "104803.328000", "104805.328000", "104807.328000", "104808.875000"],
      "InstanceNumber": [1, 2, 3, 4, 5, 6, 7, 8, 9, 10, 11, 12, 13, 14, 15, 16, 17, 18, 19, 20, 21, 22, 23, 24, 25, 26, 27, 28, 29, 30, 31, 32, 33, 34, 35, 36, 37, 38, 39, 40, 41, 42, 43, 44, 45, 46, 47, 48, 49, 50, 51, 52, 53, 54, 55, 56, 57, 58, 59, 60, 61, 62, 63, 64, 65, 66, 67, 68, 69, 70, 71, 72, 73, 74, 75, 76, 77, 78, 79, 80, 81, 82, 83, 84, 85, 86, 87, 88, 89, 90, 91, 92, 93, 94, 95, 96, 97, 98, 99, 100, 101, 102, 103, 104, 105, 106, 107, 108, 109, 110, 111, 112, 113, 114, 115, 116, 117, 118, 119, 120, 121, 122, 123, 124, 125, 126, 127, 128, 129, 130, 131, 132, 133, 134, 135, 136, 137, 138, 139, 140, 141, 142, 143, 144, 145, 146, 147, 148, 149, 150, 151, 152, 153, 154, 155, 156, 157, 158, 159, 160, 161, 162, 163, 164, 165, 166, 167, 168, 169, 170, 171, 172, 173, 174, 175, 176, 177, 178, 179, 180, 181, 182, 183, 184, 185, 186, 187, 188, 189, 190, 191, 192, 193, 194, 195, 196, 197, 198, 199, 200, 201, 202, 203, 204, 205, 206, 207, 208, 209, 210],
      "LargestImagePixelValue": [2067, 1969, 1960, 1940, 1926, 1939, 1928, 1940, 1959, 1937, 1934, 1959, 1937, 1954, 1938, 1940, 1953, 1955, 1943, 1945, 1941, 1938, 1937, 1946, 1934, 1956, 1936, 1951, 1961, 1946, 1947, 1952, 1946, 1938, 1948, 1947, 1936, 1946, 1962, 1951, 1949, 1966, 1966, 1957, 1952, 1953, 1951, 1968, 1962, 1943, 1955, 1948, 1971, 1961, 1960, 1966, 1964, 1961, 1969, 1957, 1971, 1945, 1961, 1956, 1974, 1972, 1957, 1962, 1960, 1963, 1969, 1969, 1955, 1957, 1956, 1960, 1965, 1959, 1960, 1972, 1958, 1980, 1957, 1967, 1973, 1955, 1963, 1959, 1951, 1974, 1961, 1964, 1965, 1946, 1974, 1965, 1969, 1961, 1956, 1953, 1967, 1956, 1969, 1959, 1960, 1949, 1955, 1963, 1981, 1980, 1972, 1973, 1972, 1973, 1963, 1968, 1962, 1959, 1974, 1972, 1967, 1961, 1962, 1963, 1963, 1970, 1962, 1959, 1969, 1957, 1973, 1979, 1968, 1964, 1974, 1970, 1967, 1955, 1956, 1958, 1967, 1962, 1957, 1975, 1963, 1970, 1946, 1970, 1959, 1945, 1972, 1989, 1976, 1971, 1972, 1985, 1992, 1969, 1996, 1964, 1982, 1967, 1972, 1994, 1981, 1978, 1962, 1978, 1982, 1983, 1972, 1977, 1969, 1981, 1987, 1983, 1983, 1994, 1978, 1983, 1966, 1975, 1997, 1986, 1974, 1999, 1966, 1976, 2007, 1976, 1988, 1985, 1972, 1967, 1995, 1980, 1977, 1989, 1982, 1971, 1975, 1967, 1977, 1973, 1975, 1979, 2045, 2014, 1981, 2014],
      "WindowCenter": [766.0, 760.0, 758.0, 757.0, 756.0, 757.0, 757.0, 758.0, 757.0, 757.0, 757.0, 757.0, 757.0, 758.0, 757.0, 756.0, 756.0, 757.0, 756.0, 756.0, 756.0, 756.0, 757.0, 757.0, 757.0, 757.0, 756.0, 755.0, 755.0, 756.0, 756.0, 756.0, 756.0, 756.0, 756.0, 756.0, 756.0, 756.0, 757.0, 757.0, 756.0, 757.0, 756.0, 757.0, 755.0, 755.0, 756.0, 756.0, 757.0, 757.0, 757.0, 756.0, 755.0, 755.0, 756.0, 757.0, 756.0, 756.0, 757.0, 756.0, 756.0, 756.0, 756.0, 757.0, 757.0, 756.0, 756.0, 756.0, 756.0, 757.0, 756.0, 756.0, 755.0, 756.0, 756.0, 757.0, 757.0, 756.0, 757.0, 757.0, 757.0, 756.0, 755.0, 756.0, 757.0, 757.0, 757.0, 757.0, 756.0, 756.0, 756.0, 756.0, 756.0, 756.0, 756.0, 755.0, 756.0, 756.0, 758.0, 758.0, 757.0, 756.0, 756.0, 756.0, 757.0, 757.0, 757.0, 757.0, 757.0, 757.0, 757.0, 757.0, 756.0, 757.0, 757.0, 757.0, 757.0, 757.0, 758.0, 758.0, 757.0, 757.0, 757.0, 759.0, 759.0, 759.0, 757.0, 757.0, 757.0, 757.0, 757.0, 757.0, 758.0, 757.0, 756.0, 757.0, 757.0, 758.0, 758.0, 757.0, 757.0, 756.0, 757.0, 757.0, 757.0, 757.0, 756.0, 758.0, 757.0, 758.0, 757.0, 758.0, 756.0, 755.0, 755.0, 756.0, 757.0, 759.0, 759.0, 758.0, 758.0, 757.0, 757.0, 757.0, 758.0, 758.0, 757.0, 758.0, 757.0, 757.0, 758.0, 758.0, 758.0, 757.0, 758.0, 757.0, 758.0, 758.0, 758.0, 758.0, 758.0, 758.0, 757.0, 757.0, 758.0, 758.0, 758.0, 758.0, 759.0, 758.0, 758.0, 758.0, 759.0, 759.0, 759.0, 759.0, 758.0, 759.0, 759.0, 759.0, 759.0, 758.0, 759.0, 759.0, 759.0, 758.0, 759.0, 760.0, 759.0, 760.0],
      "WindowWidth": [1636.0, 1620.0, 1614.0, 1610.0, 1610.0, 1611.0, 1612.0, 1613.0, 1612.0, 1610.0, 1611.0, 1610.0, 1611.0, 1613.0, 1610.0, 1609.0, 1608.0, 1610.0, 1609.0, 1609.0, 1610.0, 1609.0, 1610.0, 1611.0, 1612.0, 1611.0, 1608.0, 1607.0, 1607.0, 1608.0, 1608.0, 1609.0, 1609.0, 1608.0, 1609.0, 1609.0, 1610.0, 1609.0, 1612.0, 1612.0, 1609.0, 1610.0, 1610.0, 1610.0, 1607.0, 1607.0, 1608.0, 1609.0, 1612.0, 1611.0, 1611.0, 1609.0, 1607.0, 1607.0, 1608.0, 1611.0, 1609.0, 1610.0, 1610.0, 1610.0, 1609.0, 1608.0, 1610.0, 1610.0, 1611.0, 1608.0, 1610.0, 1607.0, 1610.0, 1611.0, 1610.0, 1609.0, 1607.0, 1609.0, 1610.0, 1610.0, 1611.0, 1609.0, 1610.0, 1611.0, 1610.0, 1610.0, 1607.0, 1609.0, 1611.0, 1611.0, 1610.0, 1610.0, 1610.0, 1609.0, 1610.0, 1610.0, 1609.0, 1608.0, 1608.0, 1607.0, 1608.0, 1610.0, 1613.0, 1614.0, 1612.0, 1609.0, 1609.0, 1610.0, 1611.0, 1612.0, 1612.0, 1610.0, 1610.0, 1612.0, 1610.0, 1610.0, 1610.0, 1611.0, 1612.0, 1611.0, 1611.0, 1612.0, 1613.0, 1613.0, 1611.0, 1611.0, 1611.0, 1616.0, 1616.0, 1615.0, 1612.0, 1610.0, 1610.0, 1611.0, 1611.0, 1611.0, 1612.0, 1611.0, 1610.0, 1611.0, 1612.0, 1613.0, 1613.0, 1611.0, 1610.0, 1609.0, 1612.0, 1612.0, 1611.0, 1611.0, 1609.0, 1613.0, 1611.0, 1614.0, 1612.0, 1613.0, 1609.0, 1607.0, 1607.0, 1609.0, 1612.0, 1614.0, 1615.0, 1613.0, 1613.0, 1611.0, 1611.0, 1612.0, 1612.0, 1613.0, 1612.0, 1613.0, 1611.0, 1612.0, 1613.0, 1613.0, 1613.0, 1611.0, 1612.0, 1612.0, 1614.0, 1613.0, 1613.0, 1614.0, 1612.0, 1613.0, 1612.0, 1611.0, 1613.0, 1614.0, 1614.0, 1614.0, 1615.0, 1613.0, 1613.0, 1613.0, 1615.0, 1616.0, 1615.0, 1615.0, 1614.0, 1615.0, 1615.0, 1616.0, 1615.0, 1614.0, 1616.0, 1615.0, 1615.0, 1613.0, 1617.0, 1619.0, 1616.0, 1618.0]
    },
    "slices": {}
  }
}