{
  "AcquisitionMatrixPE": 64,
  "AcquisitionNumber": 1,
  "AcquisitionTime": "10:33:33.337500",
  "BandwidthPerPixelPhaseEncode": 30.637,
  "BaseResolution": 64,
  "BidsGuess": [
    "func",
    "_acq-epfid2_dir-AP_run-6_bold"
],
  "CoilCombinationMethod": "Sum of Squares",
  "CoilString": "C:HEA;HEP",
  "ConversionSoftware": "dcm2niix",
  "ConversionSoftwareVersion": "v1.0.20240202",
  "DerivedVendorReportedEchoSpacing": 0.000510004,
  "DeviceSerialNumber": "35119",
  "DwellTime": 3.5e-06,
  "EchoTime": 0.03,
  "EffectiveEchoSpacing": 0.000510004,
  "FlipAngle": 78,
  "HeudiconvVersion": "1.1.6",
  "ImageComments": "V",
  "ImageOrientationPatientDICOM": [0.998722, 0.028794, 0.041546, 0, 0.821902, -0.569629],
  "ImageOrientationText": "Tra>Cor(-34.7)>Sag(2.9)",
  "ImageType": [
    "ORIGINAL",
    "PRIMARY",
    "M",
    "ND",
    "MOSAIC"
],
  "ImagingFrequency": 123.251792,
  "InPlanePhaseEncodingDirectionDICOM": "COL",
  "InstitutionAddress": "Chaucer Road  15,Cambridge,UK,GB,CB2 2EF",
  "InstitutionName": "MRC-CBU",
  "MRAcquisitionType": "2D",
  "MagneticFieldStrength": 3,
  "Manufacturer": "Siemens",
  "ManufacturersModelName": "TrioTim",
  "MatrixCoilMode": "SENSE",
  "Modality": "MR",
  "NonlinearGradientCorrection": false,
  "PartialFourier": 1,
  "PatientPosition": "HFS",
  "PercentPhaseFOV": 100,
  "PercentSampling": 100,
  "PhaseEncodingDirection": "j-",
  "PhaseEncodingSteps": 64,
  "PhaseResolution": 1,
  "PixelBandwidth": 2230,
  "ProcedureStepDescription": "CBU^Neuroimaging",
  "ProtocolName": "CBU_DWEPI_BOLD210",
  "PulseSequenceDetails": "%SiemensSeq%\\ep2d_bold",
  "ReceiveCoilName": "HeadMatrix",
  "ReconMatrixPE": 64,
  "RepetitionTime": 2,
  "SAR": 0.128869,
  "ScanOptions": "FS",
  "ScanningSequence": "EP",
  "SequenceName": "*epfid2d1_64",
  "SequenceVariant": "SK",
  "SeriesDescription": "CBU_DWEPI_BOLD210",
  "SeriesNumber": 6,
  "ShimSetting": [-7766, -8719, -2071, 695, 287, 360, -262, -104],
  "SliceThickness": 3,
  "SliceTiming": [0, 1.035, 0.0625, 1.095, 0.1225, 1.1575, 0.1825, 1.2175, 0.245, 1.2775, 0.305, 1.34, 0.365, 1.4, 0.4275, 1.46, 0.4875, 1.5225, 0.5475, 1.5825, 0.61, 1.6425, 0.67, 1.705, 0.73, 1.765, 0.7925, 1.825, 0.8525, 1.8875, 0.9125, 1.9475, 0.975],
  "SoftwareVersions": "syngo MR B15",
  "SpacingBetweenSlices": 3.9,
  "StationName": "MRC35119",
  "TaskName": "faceprocessing",
  "TotalReadoutTime": 0.0321303,
  "TxRefAmp": 308.819,
  "dcmmeta_affine": [
    [-2.9961659908294678, 0.0, 0.1971396952867508, 96.60460662841797],
    [-0.08638200163841248, 2.4657061100006104, -2.2187139987945557, -30.852981567382812],
    [0.12463799864053726, 1.708886981010437, 3.2013213634490967, -87.24886322021484],
    [0.0, 0.0, 0.0, 1.0]
],
  "dcmmeta_reorient_transform": [
    [0.0, -1.0, 0.0, 63.0],
    [1.0, 0.0, 0.0, 0.0],
    [0.0, 0.0, 1.0, 0.0],
    [0.0, 0.0, 0.0, 1.0]
],
  "dcmmeta_shape": [64, 64, 33, 210],
  "dcmmeta_slice_dim": 2,
  "dcmmeta_version": 0.6,
  "global": {
    "const": {
      "AcquisitionMatrix": [64, 0, 0, 64],
      "AngioFlag": "N",
      "BitsAllocated": 16,
      "BitsStored": 12,
      "Columns": 384,
      "EchoNumbers": 1,
      "EchoTime": 30.0,
      "EchoTrainLength": 1,
      "FlipAngle": 78.0,
      "HighBit": 11,
      "ImageOrientationPatient": [0.998722, 0.028794, 0.041546, -0.0, 0.821902, -0.569629],
      "ImagePositionPatient": [-575.991163, -532.820577, 273.890855],
      "ImageType": [
        "ORIGINAL",
        "PRIMARY",
        "M",
        "ND",
        "MOSAIC"
],
      "ImagedNucleus": "1H",
      "ImagingFrequency": 123.251792,
      "InPlanePhaseEncodingDirection": "COL",
      "MRAcquisitionType": "2D",
      "MagneticFieldStrength": 3.0,
      "Manufacturer": "SIEMENS",
      "ManufacturerModelName": "TrioTim",
      "Modality": "MR",
      "NumberOfAverages": 1.0,
      "NumberOfPhaseEncodingSteps": 64,
      "PercentPhaseFieldOfView": 100.0,
      "PercentSampling": 100.0,
      "PerformedProcedureStepStartTime": "100102.750000",
      "PhotometricInterpretation": "MONOCHROME2",
      "PixelAspectRatio": [1, 1],
      "PixelBandwidth": 2230.0,
      "PixelRepresentation": 0,
      "PixelSpacing": [3.0, 3.0],
      "ProtocolName": "CBU_DWEPI_BOLD210",
      "RepetitionTime": 2000.0,
      "Rows": 384,
      "SAR": 0.128869,
      "SamplesPerPixel": 1,
      "ScanOptions": "FS",
      "ScanningSequence": "EP",
      "SequenceName": "*epfid2d1_64",
      "SequenceVariant": "SK",
      "SeriesDescription": "CBU_DWEPI_BOLD210",
      "SeriesNumber": 6,
      "SeriesTime": "103336.843000",
      "SliceLocation": -49.183066,
      "SliceThickness": 3.0,
      "SmallestImagePixelValue": 0,
      "SoftwareVersions": "syngo MR B15",
      "SpacingBetweenSlices": 3.9,
      "SpecificCharacterSet": "ISO_IR 100",
      "StudyID": "1",
      "StudyTime": "100102.687000",
      "TransmitCoilName": "Body",
      "VariableFlipAngleFlag": "N",
      "WindowCenterWidthExplanation": "Algo1",
      "dBdt": 0.0},
    "slices": {}
  },
  "time": {
    "samples": {
      "AcquisitionNumber": [1, 2, 3, 4, 5, 6, 7, 8, 9, 10, 11, 12, 13, 14, 15, 16, 17, 18, 19, 20, 21, 22, 23, 24, 25, 26, 27, 28, 29, 30, 31, 32, 33, 34, 35, 36, 37, 38, 39, 40, 41, 42, 43, 44, 45, 46, 47, 48, 49, 50, 51, 52, 53, 54, 55, 56, 57, 58, 59, 60, 61, 62, 63, 64, 65, 66, 67, 68, 69, 70, 71, 72, 73, 74, 75, 76, 77, 78, 79, 80, 81, 82, 83, 84, 85, 86, 87, 88, 89, 90, 91, 92, 93, 94, 95, 96, 97, 98, 99, 100, 101, 102, 103, 104, 105, 106, 107, 108, 109, 110, 111, 112, 113, 114, 115, 116, 117, 118, 119, 120, 121, 122, 123, 124, 125, 126, 127, 128, 129, 130, 131, 132, 133, 134, 135, 136, 137, 138, 139, 140, 141, 142, 143, 144, 145, 146, 147, 148, 149, 150, 151, 152, 153, 154, 155, 156, 157, 158, 159, 160, 161, 162, 163, 164, 165, 166, 167, 168, 169, 170, 171, 172, 173, 174, 175, 176, 177, 178, 179, 180, 181, 182, 183, 184, 185, 186, 187, 188, 189, 190, 191, 192, 193, 194, 195, 196, 197, 198, 199, 200, 201, 202, 203, 204, 205, 206, 207, 208, 209, 210],
      "AcquisitionTime": ["103333.337500", "103335.347500", "103337.355000", "103339.362500", "103341.370000", "103343.380000", "103345.387500", "103347.395000", "103349.402500", "103351.410000", "103353.420000", "103355.427500", "103357.435000", "103359.442500", "103401.450000", "103403.460000", "103405.467500", "103407.475000", "103409.482500", "103411.490000", "103413.500000", "103415.507500", "103417.515000", "103419.522500", "103421.532500", "103423.540000", "103425.547500", "103427.555000", "103429.562500", "103431.572500", "103433.580000", "103435.587500", "103437.595000", "103439.602500", "103441.612500", "103443.620000", "103445.627500", "103447.635000", "103449.645000", "103451.652500", "103453.660000", "103455.667500", "103457.675000", "103459.685000", "103501.692500", "103503.700000", "103505.707500", "103507.715000", "103509.725000", "103511.732500", "103513.740000", "103515.747500", "103517.757500", "103519.765000", "103521.772500", "103523.780000", "103525.787500", "103527.797500", "103529.805000", "103531.812500", "103533.820000", "103535.827500", "103537.837500", "103539.845000", "103541.852500", "103543.860000", "103545.867500", "103547.877500", "103549.885000", "103551.892500", "103553.900000", "103555.910000", "103557.917500", "103559.925000", "103601.932500", "103603.940000", "103605.950000", "103607.957500", "103609.965000", "103611.972500", "103613.980000", "103615.990000", "103617.997500", "103620.005000", "103622.012500", "103624.022500", "103626.030000", "103628.037500", "103630.045000", "103632.052500", "103634.062500", "103636.070000", "103638.077500", "103640.085000", "103642.092500", "103644.102500", "103646.110000", "103648.117500", "103650.125000", "103652.135000", "103654.142500", "103656.150000", "103658.157500", "103700.165000", "103702.175000", "103704.182500", "103706.190000", "103708.197500", "103710.205000", "103712.215000", "103714.222500", "103716.230000", "103718.237500", "103720.247500", "103722.255000", "103724.262500", "103726.270000", "103728.277500", "103730.287500", "103732.295000", "103734.302500", "103736.310000", "103738.317500", "103740.327500", "103742.335000", "103744.342500", "103746.350000", "103748.357500", "103750.367500", "103752.375000", "103754.382500", "103756.390000", "103758.400000", "103800.407500", "103802.415000", "103804.422500", "103806.430000", "103808.440000", "103810.447500", "103812.455000", "103814.462500", "103816.470000", "103818.480000", "103820.487500", "103822.495000", "103824.502500", "103826.512500", "103828.520000", "103830.527500", "103832.535000", "103834.542500", "103836.552500", "103838.560000", "103840.567500", "103842.575000", "103844.582500", "103846.592500", "103848.600000", "103850.607500", "103852.615000", "103854.625000", "103856.632500", "103858.640000", "103900.647500", "103902.655000", "103904.665000", "103906.672500", "103908.680000", "103910.687500", "103912.695000", "103914.705000", "103916.712500", "103918.720000", "103920.727500", "103922.735000", "103924.745000", "103926.752500", "103928.760000", "103930.767500", "103932.777500", "103934.785000", "103936.792500", "103938.800000", "103940.807500", "103942.817500", "103944.825000", "103946.832500", "103948.840000", "103950.847500", "103952.857500", "103954.865000", "103956.872500", "103958.880000", "104000.890000", "104002.897500", "104004.905000", "104006.912500", "104008.920000", "104010.930000", "104012.937500", "104014.945000", "104016.952500", "104018.960000", "104020.970000", "104022.977500", "104024.985000", "104026.992500", "104029.002500", "104031.010000", "104033.017500"],
      "ContentTime": ["103336.843000", "103338.828000", "103340.828000", "103342.828000", "103344.828000", "103346.828000", "103348.828000", "103350.828000", "103352.828000", "103354.828000", "103356.828000", "103358.828000", "103400.828000", "103402.828000", "103404.828000", "103406.828000", "103408.828000", "103410.828000", "103412.828000", "103414.828000", "103416.828000", "103418.828000", "103420.828000", "103422.828000", "103424.828000", "103426.828000", "103428.828000", "103430.828000", "103432.828000", "103434.828000", "103436.828000", "103438.828000", "103440.828000", "103442.828000", "103444.828000", "103446.828000", "103448.828000", "103450.828000", "103452.828000", "103454.828000", "103456.828000", "103458.828000", "103500.828000", "103502.828000", "103504.828000", "103506.828000", "103508.828000", "103510.828000", "103512.828000", "103514.828000", "103516.828000", "103518.828000", "103520.828000", "103522.828000", "103524.828000", "103526.828000", "103528.828000", "103530.828000", "103532.828000", "103534.828000", "103536.828000", "103538.828000", "103540.828000", "103542.828000", "103544.828000", "103546.828000", "103548.828000", "103550.828000", "103552.828000", "103554.828000", "103556.828000", "103558.828000", "103600.828000", "103602.828000", "103604.828000", "103606.828000", "103608.828000", "103610.828000", "103612.828000", "103614.828000", "103616.828000", "103618.828000", "103620.828000", "103622.828000", "103624.828000", "103626.828000", "103628.828000", "103630.828000", "103632.828000", "103634.828000", "103636.828000", "103638.828000", "103640.828000", "103642.828000", "103644.828000", "103646.828000", "103648.828000", "103650.828000", "103652.828000", "103654.828000", "103656.828000", "103658.828000", "103700.828000", "103702.828000", "103704.828000", "103706.828000", "103708.828000", "103710.828000", "103712.828000", "103714.828000", "103716.828000", "103718.828000", "103720.828000", "103722.828000", "103724.828000", "103726.828000", "103728.828000", "103730.828000", "103732.828000", "103734.828000", "103736.828000", "103738.828000", "103740.828000", "103742.828000", "103744.828000", "103746.828000", "103748.828000", "103750.828000", "103752.828000", "103754.828000", "103756.828000", "103758.828000", "103800.828000", "103802.828000", "103804.828000", "103806.828000", "103808.828000", "103810.828000", "103812.828000", "103814.828000", "103816.828000", "103818.828000", "103820.828000", "103822.828000", "103824.828000", "103826.828000", "103828.828000", "103830.828000", "103832.828000", "103834.828000", "103836.828000", "103838.828000", "103840.828000", "103842.828000", "103844.828000", "103846.828000", "103848.828000", "103850.828000", "103852.828000", "103854.828000", "103856.828000", "103858.828000", "103900.828000", "103902.828000", "103904.828000", "103906.828000", "103908.828000", "103910.828000", "103912.828000", "103914.828000", "103916.828000", "103918.828000", "103920.828000", "103922.828000", "103924.828000", "103926.828000", "103928.828000", "103930.828000", "103932.828000", "103934.828000", "103936.828000", "103938.828000", "103940.828000", "103942.828000", "103944.828000", "103946.828000", "103948.828000", "103950.828000", "103952.828000", "103954.828000", "103956.828000", "103958.828000", "104000.828000", "104002.828000", "104004.828000", "104006.828000", "104008.828000", "104010.828000", "104012.828000", "104014.828000", "104016.828000", "104018.828000", "104020.828000", "104022.828000", "104024.828000", "104026.828000", "104028.828000", "104030.828000", "104032.828000", "104034.375000"],
      "InstanceCreationTime": ["103336.843000", "103338.828000", "103340.828000", "103342.828000", "103344.828000", "103346.828000", "103348.828000", "103350.828000", "103352.828000", "103354.828000", "103356.828000", "103358.828000", "103400.828000", "103402.828000", "103404.828000", "103406.828000", "103408.828000", "103410.828000", "103412.828000", "103414.828000", "103416.828000", "103418.828000", "103420.828000", "103422.828000", "103424.828000", "103426.828000", "103428.828000", "103430.828000", "103432.828000", "103434.828000", "103436.828000", "103438.828000", "103440.828000", "103442.828000", "103444.828000", "103446.828000", "103448.828000", "103450.828000", "103452.828000", "103454.828000", "103456.828000", "103458.828000", "103500.828000", "103502.828000", "103504.828000", "103506.828000", "103508.828000", "103510.828000", "103512.828000", "103514.828000", "103516.828000", "103518.828000", "103520.828000", "103522.828000", "103524.828000", "103526.828000", "103528.828000", "103530.828000", "103532.828000", "103534.828000", "103536.828000", "103538.828000", "103540.828000", "103542.828000", "103544.828000", "103546.828000", "103548.828000", "103550.828000", "103552.828000", "103554.828000", "103556.828000", "103558.828000", "103600.828000", "103602.828000", "103604.828000", "103606.828000", "103608.828000", "103610.828000", "103612.828000", "103614.828000", "103616.828000", "103618.828000", "103620.828000", "103622.828000", "103624.828000", "103626.828000", "103628.828000", "103630.828000", "103632.828000", "103634.828000", "103636.828000", "103638.828000", "103640.828000", "103642.828000", "103644.828000", "103646.828000", "103648.828000", "103650.828000", "103652.828000", "103654.828000", "103656.828000", "103658.828000", "103700.828000", "103702.828000", "103704.828000", "103706.828000", "103708.828000", "103710.828000", "103712.828000", "103714.828000", "103716.828000", "103718.828000", "103720.828000", "103722.828000", "103724.828000", "103726.828000", "103728.828000", "103730.828000", "103732.828000", "103734.828000", "103736.828000", "103738.828000", "103740.828000", "103742.828000", "103744.828000", "103746.828000", "103748.828000", "103750.828000", "103752.828000", "103754.828000", "103756.828000", "103758.828000", "103800.828000", "103802.828000", "103804.828000", "103806.828000", "103808.828000", "103810.828000", "103812.828000", "103814.828000", "103816.828000", "103818.828000", "103820.828000", "103822.828000", "103824.828000", "103826.828000", "103828.828000", "103830.828000", "103832.828000", "103834.828000", "103836.828000", "103838.828000", "103840.828000", "103842.828000", "103844.828000", "103846.828000", "103848.828000", "103850.828000", "103852.828000", "103854.828000", "103856.828000", "103858.828000", "103900.828000", "103902.828000", "103904.828000", "103906.828000", "103908.828000", "103910.828000", "103912.828000", "103914.828000", "103916.828000", "103918.828000", "103920.828000", "103922.828000", "103924.828000", "103926.828000", "103928.828000", "103930.828000", "103932.828000", "103934.828000", "103936.828000", "103938.828000", "103940.828000", "103942.828000", "103944.828000", "103946.828000", "103948.828000", "103950.828000", "103952.828000", "103954.828000", "103956.828000", "103958.828000", "104000.828000", "104002.828000", "104004.828000", "104006.828000", "104008.828000", "104010.828000", "104012.828000", "104014.828000", "104016.828000", "104018.828000", "104020.828000", "104022.828000", "104024.828000", "104026.828000", "104028.828000", "104030.828000", "104032.828000", "104034.375000"],
      "InstanceNumber": [1, 2, 3, 4, 5, 6, 7, 8, 9, 10, 11, 12, 13, 14, 15, 16, 17, 18, 19, 20, 21, 22, 23, 24, 25, 26, 27, 28, 29, 30, 31, 32, 33, 34, 35, 36, 37, 38, 39, 40, 41, 42, 43, 44, 45, 46, 47, 48, 49, 50, 51, 52, 53, 54, 55, 56, 57, 58, 59, 60, 61, 62, 63, 64, 65, 66, 67, 68, 69, 70, 71, 72, 73, 74, 75, 76, 77, 78, 79, 80, 81, 82, 83, 84, 85, 86, 87, 88, 89, 90, 91, 92, 93, 94, 95, 96, 97, 98, 99, 100, 101, 102, 103, 104, 105, 106, 107, 108, 109, 110, 111, 112, 113, 114, 115, 116, 117, 118, 119, 120, 121, 122, 123, 124, 125, 126, 127, 128, 129, 130, 131, 132, 133, 134, 135, 136, 137, 138, 139, 140, 141, 142, 143, 144, 145, 146, 147, 148, 149, 150, 151, 152, 153, 154, 155, 156, 157, 158, 159, 160, 161, 162, 163, 164, 165, 166, 167, 168, 169, 170, 171, 172, 173, 174, 175, 176, 177, 178, 179, 180, 181, 182, 183, 184, 185, 186, 187, 188, 189, 190, 191, 192, 193, 194, 195, 196, 197, 198, 199, 200, 201, 202, 203, 204, 205, 206, 207, 208, 209, 210],
      "LargestImagePixelValue": [2028, 1957, 1919, 1914, 1912, 1914, 1900, 1891, 1890, 1911, 1875, 1898, 1899, 1908, 1921, 1905, 1916, 1905, 1896, 1906, 1880, 1891, 1885, 1893, 1896, 1878, 1908, 1896, 1916, 1896, 1894, 1934, 1893, 1914, 1908, 1914, 1905, 1907, 1897, 1920, 1878, 1884, 1894, 1904, 1896, 1921, 1912, 1894, 1913, 1903, 1917, 1887, 1890, 1914, 1896, 1909, 1890, 1903, 1885, 1926, 1927, 1889, 1902, 1887, 1898, 1894, 1905, 1892, 1893, 1895, 1905, 1913, 1912, 1907, 1904, 1903, 1905, 1913, 1891, 1922, 1911, 1898, 1913, 1887, 1901, 1902, 1905, 1913, 1907, 1900, 1896, 1906, 1895, 1905, 1889, 1915, 1895, 1906, 1923, 1920, 1908, 1906, 1919, 1899, 1901, 1918, 1887, 1911, 1910, 1896, 1904, 1890, 1882, 1907, 1905, 1899, 1893, 1910, 1895, 1890, 1924, 1906, 1901, 1905, 1900, 1899, 1898, 1904, 1904, 1926, 1907, 1920, 1917, 1918, 1894, 1896, 1903, 1911, 1911, 1903, 1888, 1905, 1902, 1907, 1906, 1911, 1903, 1919, 1923, 1923, 1908, 1915, 1893, 1890, 1889, 1900, 1896, 1920, 1907, 1921, 1891, 1900, 1914, 1922, 1903, 1925, 1909, 1912, 1900, 1908, 1915, 1910, 1922, 1927, 1910, 1909, 1917, 1913, 1923, 1899, 1897, 1911, 1916, 1913, 1900, 1917, 1909, 1909, 1900, 1902, 1906, 1921, 1903, 1930, 1922, 1902, 1918, 1906, 1915, 1909, 1912, 1930, 1902, 1913, 1918, 1919, 1921, 1907, 1900, 1880],
      "WindowCenter": [763.0, 758.0, 756.0, 755.0, 754.0, 754.0, 754.0, 754.0, 754.0, 754.0, 755.0, 754.0, 754.0, 753.0, 754.0, 754.0, 755.0, 754.0, 755.0, 754.0, 753.0, 754.0, 753.0, 754.0, 754.0, 753.0, 754.0, 753.0, 754.0, 754.0, 754.0, 754.0, 754.0, 755.0, 755.0, 755.0, 754.0, 754.0, 754.0, 754.0, 754.0, 754.0, 754.0, 754.0, 754.0, 755.0, 755.0, 754.0, 754.0, 754.0, 754.0, 753.0, 753.0, 753.0, 753.0, 753.0, 754.0, 754.0, 754.0, 754.0, 753.0, 753.0, 753.0, 753.0, 755.0, 754.0, 754.0, 754.0, 754.0, 754.0, 754.0, 754.0, 754.0, 754.0, 754.0, 754.0, 754.0, 754.0, 754.0, 754.0, 755.0, 755.0, 755.0, 754.0, 754.0, 754.0, 755.0, 754.0, 754.0, 754.0, 754.0, 754.0, 754.0, 756.0, 755.0, 755.0, 754.0, 754.0, 754.0, 754.0, 755.0, 754.0, 754.0, 754.0, 754.0, 755.0, 754.0, 754.0, 754.0, 755.0, 754.0, 755.0, 755.0, 755.0, 755.0, 755.0, 756.0, 756.0, 756.0, 756.0, 755.0, 754.0, 755.0, 756.0, 757.0, 755.0, 755.0, 754.0, 754.0, 755.0, 755.0, 756.0, 756.0, 756.0, 755.0, 755.0, 756.0, 756.0, 756.0, 755.0, 755.0, 756.0, 756.0, 755.0, 754.0, 754.0, 754.0, 755.0, 757.0, 757.0, 757.0, 756.0, 755.0, 756.0, 756.0, 756.0, 755.0, 755.0, 755.0, 755.0, 756.0, 755.0, 756.0, 755.0, 756.0, 756.0, 756.0, 756.0, 756.0, 756.0, 755.0, 755.0, 756.0, 755.0, 757.0, 756.0, 754.0, 753.0, 754.0, 755.0, 756.0, 755.0, 756.0, 756.0, 756.0, 755.0, 755.0, 756.0, 756.0, 755.0, 755.0, 755.0, 756.0, 757.0, 756.0, 756.0, 756.0, 755.0, 756.0, 755.0, 755.0, 755.0, 754.0, 756.0, 756.0, 756.0, 755.0, 756.0, 755.0, 755.0],
      "WindowWidth": [1628.0, 1614.0, 1609.0, 1605.0, 1604.0, 1605.0, 1604.0, 1604.0, 1604.0, 1604.0, 1605.0, 1605.0, 1602.0, 1602.0, 1603.0, 1604.0, 1606.0, 1605.0, 1605.0, 1604.0, 1601.0, 1603.0, 1602.0, 1603.0, 1603.0, 1602.0, 1603.0, 1602.0, 1604.0, 1603.0, 1604.0, 1604.0, 1603.0, 1607.0, 1607.0, 1606.0, 1603.0, 1603.0, 1604.0, 1604.0, 1604.0, 1604.0, 1604.0, 1605.0, 1604.0, 1605.0, 1605.0, 1604.0, 1605.0, 1602.0, 1605.0, 1602.0, 1602.0, 1602.0, 1602.0, 1602.0, 1604.0, 1604.0, 1603.0, 1604.0, 1602.0, 1602.0, 1602.0, 1601.0, 1605.0, 1603.0, 1604.0, 1603.0, 1604.0, 1603.0, 1603.0, 1604.0, 1605.0, 1604.0, 1604.0, 1603.0, 1603.0, 1603.0, 1603.0, 1605.0, 1607.0, 1607.0, 1606.0, 1604.0, 1603.0, 1603.0, 1606.0, 1605.0, 1605.0, 1603.0, 1603.0, 1603.0, 1604.0, 1607.0, 1606.0, 1605.0, 1603.0, 1603.0, 1605.0, 1604.0, 1606.0, 1604.0, 1604.0, 1604.0, 1605.0, 1605.0, 1603.0, 1604.0, 1604.0, 1605.0, 1604.0, 1605.0, 1606.0, 1605.0, 1607.0, 1607.0, 1607.0, 1608.0, 1608.0, 1608.0, 1607.0, 1605.0, 1607.0, 1610.0, 1610.0, 1607.0, 1606.0, 1605.0, 1605.0, 1606.0, 1606.0, 1608.0, 1608.0, 1608.0, 1605.0, 1605.0, 1608.0, 1608.0, 1608.0, 1606.0, 1605.0, 1609.0, 1608.0, 1606.0, 1603.0, 1603.0, 1604.0, 1606.0, 1610.0, 1610.0, 1610.0, 1609.0, 1606.0, 1608.0, 1608.0, 1608.0, 1606.0, 1607.0, 1607.0, 1607.0, 1609.0, 1607.0, 1608.0, 1607.0, 1607.0, 1608.0, 1607.0, 1607.0, 1607.0, 1607.0, 1607.0, 1606.0, 1608.0, 1606.0, 1610.0, 1608.0, 1604.0, 1601.0, 1603.0, 1605.0, 1608.0, 1606.0, 1610.0, 1609.0, 1609.0, 1606.0, 1606.0, 1608.0, 1607.0, 1607.0, 1605.0, 1607.0, 1607.0, 1610.0, 1610.0, 1608.0, 1607.0, 1606.0, 1608.0, 1607.0, 1606.0, 1606.0, 1604.0, 1608.0, 1608.0, 1608.0, 1607.0, 1608.0, 1607.0, 1607.0]
    },
    "slices": {}
  }
}