{
  "AcquisitionMatrixPE": 64,
  "AcquisitionNumber": 1,
  "AcquisitionTime": "11:05:27.860000",
  "BandwidthPerPixelPhaseEncode": 30.637,
  "BaseResolution": 64,
  "BidsGuess": [
    "func",
    "_acq-epfid2_dir-AP_run-10_bold"
],
  "CoilCombinationMethod": "Sum of Squares",
  "CoilString": "C:HEA;HEP",
  "ConversionSoftware": "dcm2niix",
  "ConversionSoftwareVersion": "v1.0.20240202",
  "DerivedVendorReportedEchoSpacing": 0.000510004,
  "DeviceSerialNumber": "35119",
  "DwellTime": 3.5e-06,
  "EchoTime": 0.03,
  "EffectiveEchoSpacing": 0.000510004,
  "FlipAngle": 78,
  "HeudiconvVersion": "1.1.6",
  "ImageComments": "V",
  "ImageOrientationPatientDICOM": [0.998722, 0.028794, 0.041546, 0, 0.821902, -0.569629],
  "ImageOrientationText": "Tra>Cor(-34.7)>Sag(2.9)",
  "ImageType": [
    "ORIGINAL",
    "PRIMARY",
    "M",
    "ND",
    "MOSAIC"
],
  "ImagingFrequency": 123.251792,
  "InPlanePhaseEncodingDirectionDICOM": "COL",
  "InstitutionAddress": "Chaucer Road  15,Cambridge,UK,GB,CB2 2EF",
  "InstitutionName": "MRC-CBU",
  "MRAcquisitionType": "2D",
  "MagneticFieldStrength": 3,
  "Manufacturer": "Siemens",
  "ManufacturersModelName": "TrioTim",
  "MatrixCoilMode": "SENSE",
  "Modality": "MR",
  "NonlinearGradientCorrection": false,
  "PartialFourier": 1,
  "PatientPosition": "HFS",
  "PercentPhaseFOV": 100,
  "PercentSampling": 100,
  "PhaseEncodingDirection": "j-",
  "PhaseEncodingSteps": 64,
  "PhaseResolution": 1,
  "PixelBandwidth": 2230,
  "ProcedureStepDescription": "CBU^Neuroimaging",
  "ProtocolName": "CBU_DWEPI_BOLD210",
  "PulseSequenceDetails": "%SiemensSeq%\\ep2d_bold",
  "ReceiveCoilName": "HeadMatrix",
  "ReconMatrixPE": 64,
  "RepetitionTime": 2,
  "SAR": 0.128869,
  "ScanOptions": "FS",
  "ScanningSequence": "EP",
  "SequenceName": "*epfid2d1_64",
  "SequenceVariant": "SK",
  "SeriesDescription": "CBU_DWEPI_BOLD210",
  "SeriesNumber": 10,
  "ShimSetting": [-7766, -8719, -2071, 695, 287, 360, -262, -104],
  "SliceThickness": 3,
  "SliceTiming": [0, 1.035, 0.06, 1.095, 0.1225, 1.155, 0.1825, 1.2175, 0.2425, 1.2775, 0.305, 1.3375, 0.365, 1.4, 0.425, 1.46, 0.4875, 1.52, 0.5475, 1.5825, 0.6075, 1.6425, 0.67, 1.7025, 0.73, 1.765, 0.79, 1.825, 0.8525, 1.885, 0.9125, 1.9475, 0.9725],
  "SoftwareVersions": "syngo MR B15",
  "SpacingBetweenSlices": 3.9,
  "StationName": "MRC35119",
  "TaskName": "faceprocessing",
  "TotalReadoutTime": 0.0321303,
  "TxRefAmp": 308.819,
  "dcmmeta_affine": [
    [-2.9961659908294678, 0.0, 0.1971396952867508, 96.60460662841797],
    [-0.08638200163841248, 2.4657061100006104, -2.2187139987945557, -30.852981567382812],
    [0.12463799864053726, 1.708886981010437, 3.2013213634490967, -87.24886322021484],
    [0.0, 0.0, 0.0, 1.0]
],
  "dcmmeta_reorient_transform": [
    [0.0, -1.0, 0.0, 63.0],
    [1.0, 0.0, 0.0, 0.0],
    [0.0, 0.0, 1.0, 0.0],
    [0.0, 0.0, 0.0, 1.0]
],
  "dcmmeta_shape": [64, 64, 33, 210],
  "dcmmeta_slice_dim": 2,
  "dcmmeta_version": 0.6,
  "global": {
    "const": {
      "AcquisitionMatrix": [64, 0, 0, 64],
      "AngioFlag": "N",
      "BitsAllocated": 16,
      "BitsStored": 12,
      "Columns": 384,
      "EchoNumbers": 1,
      "EchoTime": 30.0,
      "EchoTrainLength": 1,
      "FlipAngle": 78.0,
      "HighBit": 11,
      "ImageOrientationPatient": [0.998722, 0.028794, 0.041546, -0.0, 0.821902, -0.569629],
      "ImagePositionPatient": [-575.991163, -532.820577, 273.890855],
      "ImageType": [
        "ORIGINAL",
        "PRIMARY",
        "M",
        "ND",
        "MOSAIC"
],
      "ImagedNucleus": "1H",
      "ImagingFrequency": 123.251792,
      "InPlanePhaseEncodingDirection": "COL",
      "MRAcquisitionType": "2D",
      "MagneticFieldStrength": 3.0,
      "Manufacturer": "SIEMENS",
      "ManufacturerModelName": "TrioTim",
      "Modality": "MR",
      "NumberOfAverages": 1.0,
      "NumberOfPhaseEncodingSteps": 64,
      "PercentPhaseFieldOfView": 100.0,
      "PercentSampling": 100.0,
      "PerformedProcedureStepStartTime": "100102.750000",
      "PhotometricInterpretation": "MONOCHROME2",
      "PixelAspectRatio": [1, 1],
      "PixelBandwidth": 2230.0,
      "PixelRepresentation": 0,
      "PixelSpacing": [3.0, 3.0],
      "ProtocolName": "CBU_DWEPI_BOLD210",
      "RepetitionTime": 2000.0,
      "Rows": 384,
      "SAR": 0.128869,
      "SamplesPerPixel": 1,
      "ScanOptions": "FS",
      "ScanningSequence": "EP",
      "SequenceName": "*epfid2d1_64",
      "SequenceVariant": "SK",
      "SeriesDescription": "CBU_DWEPI_BOLD210",
      "SeriesNumber": 10,
      "SeriesTime": "110532.031000",
      "SliceLocation": -49.183066,
      "SliceThickness": 3.0,
      "SmallestImagePixelValue": 0,
      "SoftwareVersions": "syngo MR B15",
      "SpacingBetweenSlices": 3.9,
      "SpecificCharacterSet": "ISO_IR 100",
      "StudyID": "1",
      "StudyTime": "100102.687000",
      "TransmitCoilName": "Body",
      "VariableFlipAngleFlag": "N",
      "WindowCenterWidthExplanation": "Algo1",
      "dBdt": 0.0},
    "slices": {}
  },
  "time": {
    "samples": {
      "AcquisitionNumber": [1, 2, 3, 4, 5, 6, 7, 8, 9, 10, 11, 12, 13, 14, 15, 16, 17, 18, 19, 20, 21, 22, 23, 24, 25, 26, 27, 28, 29, 30, 31, 32, 33, 34, 35, 36, 37, 38, 39, 40, 41, 42, 43, 44, 45, 46, 47, 48, 49, 50, 51, 52, 53, 54, 55, 56, 57, 58, 59, 60, 61, 62, 63, 64, 65, 66, 67, 68, 69, 70, 71, 72, 73, 74, 75, 76, 77, 78, 79, 80, 81, 82, 83, 84, 85, 86, 87, 88, 89, 90, 91, 92, 93, 94, 95, 96, 97, 98, 99, 100, 101, 102, 103, 104, 105, 106, 107, 108, 109, 110, 111, 112, 113, 114, 115, 116, 117, 118, 119, 120, 121, 122, 123, 124, 125, 126, 127, 128, 129, 130, 131, 132, 133, 134, 135, 136, 137, 138, 139, 140, 141, 142, 143, 144, 145, 146, 147, 148, 149, 150, 151, 152, 153, 154, 155, 156, 157, 158, 159, 160, 161, 162, 163, 164, 165, 166, 167, 168, 169, 170, 171, 172, 173, 174, 175, 176, 177, 178, 179, 180, 181, 182, 183, 184, 185, 186, 187, 188, 189, 190, 191, 192, 193, 194, 195, 196, 197, 198, 199, 200, 201, 202, 203, 204, 205, 206, 207, 208, 209, 210],
      "AcquisitionTime": ["110527.860000", "110529.867500", "110531.875000", "110533.885000", "110535.892500", "110537.900000", "110539.907500", "110541.917500", "110543.925000", "110545.932500", "110547.940000", "110549.947500", "110551.957500", "110553.965000", "110555.972500", "110557.980000", "110559.987500", "110601.997500", "110604.005000", "110606.012500", "110608.020000", "110610.027500", "110612.037500", "110614.045000", "110616.052500", "110618.060000", "110620.070000", "110622.077500", "110624.085000", "110626.092500", "110628.100000", "110630.110000", "110632.117500", "110634.125000", "110636.132500", "110638.140000", "110640.150000", "110642.157500", "110644.165000", "110646.172500", "110648.182500", "110650.190000", "110652.197500", "110654.205000", "110656.212500", "110658.222500", "110700.230000", "110702.237500", "110704.245000", "110706.252500", "110708.262500", "110710.270000", "110712.277500", "110714.285000", "110716.295000", "110718.302500", "110720.310000", "110722.317500", "110724.325000", "110726.335000", "110728.342500", "110730.350000", "110732.357500", "110734.365000", "110736.375000", "110738.382500", "110740.390000", "110742.397500", "110744.407500", "110746.415000", "110748.422500", "110750.430000", "110752.437500", "110754.447500", "110756.455000", "110758.462500", "110800.470000", "110802.477500", "110804.487500", "110806.495000", "110808.502500", "110810.510000", "110812.517500", "110814.527500", "110816.535000", "110818.542500", "110820.550000", "110822.560000", "110824.567500", "110826.575000", "110828.582500", "110830.590000", "110832.600000", "110834.607500", "110836.615000", "110838.622500", "110840.630000", "110842.640000", "110844.647500", "110846.655000", "110848.662500", "110850.672500", "110852.680000", "110854.687500", "110856.695000", "110858.702500", "110900.712500", "110902.720000", "110904.727500", "110906.735000", "110908.742500", "110910.752500", "110912.760000", "110914.767500", "110916.775000", "110918.785000", "110920.792500", "110922.800000", "110924.807500", "110926.815000", "110928.825000", "110930.832500", "110932.840000", "110934.847500", "110936.855000", "110938.865000", "110940.872500", "110942.880000", "110944.887500", "110946.895000", "110948.905000", "110950.912500", "110952.920000", "110954.927500", "110956.937500", "110958.945000", "111000.952500", "111002.960000", "111004.967500", "111006.977500", "111008.985000", "111010.992500", "111013.000000", "111015.007500", "111017.017500", "111019.025000", "111021.032500", "111023.040000", "111025.050000", "111027.057500", "111029.065000", "111031.072500", "111033.080000", "111035.090000", "111037.097500", "111039.105000", "111041.112500", "111043.120000", "111045.130000", "111047.137500", "111049.145000", "111051.152500", "111053.162500", "111055.170000", "111057.177500", "111059.185000", "111101.192500", "111103.202500", "111105.210000", "111107.217500", "111109.225000", "111111.232500", "111113.242500", "111115.250000", "111117.257500", "111119.265000", "111121.272500", "111123.282500", "111125.290000", "111127.297500", "111129.305000", "111131.315000", "111133.322500", "111135.330000", "111137.337500", "111139.345000", "111141.355000", "111143.362500", "111145.370000", "111147.377500", "111149.385000", "111151.395000", "111153.402500", "111155.410000", "111157.417500", "111159.427500", "111201.435000", "111203.442500", "111205.450000", "111207.457500", "111209.467500", "111211.475000", "111213.482500", "111215.490000", "111217.497500", "111219.507500", "111221.515000", "111223.522500", "111225.530000", "111227.540000"],
      "ContentTime": ["110532.031000", "110534.015000", "110536.015000", "110538.015000", "110540.015000", "110542.015000", "110544.015000", "110546.015000", "110548.015000", "110550.015000", "110552.015000", "110554.015000", "110556.015000", "110558.015000", "110600.015000", "110602.015000", "110604.031000", "110606.015000", "110608.015000", "110610.015000", "110612.015000", "110614.015000", "110616.015000", "110618.015000", "110620.015000", "110622.015000", "110624.015000", "110626.015000", "110628.015000", "110630.015000", "110632.015000", "110634.015000", "110636.015000", "110638.015000", "110640.015000", "110642.015000", "110644.015000", "110646.015000", "110648.015000", "110650.015000", "110652.015000", "110654.015000", "110656.015000", "110658.015000", "110700.015000", "110702.015000", "110704.015000", "110706.015000", "110708.015000", "110710.015000", "110712.015000", "110714.015000", "110716.015000", "110718.015000", "110720.015000", "110722.015000", "110724.015000", "110726.015000", "110728.015000", "110730.015000", "110732.015000", "110734.015000", "110736.015000", "110738.015000", "110740.015000", "110742.031000", "110744.015000", "110746.015000", "110748.015000", "110750.015000", "110752.031000", "110754.015000", "110756.015000", "110758.015000", "110800.015000", "110802.015000", "110804.015000", "110806.015000", "110808.015000", "110810.015000", "110812.015000", "110814.015000", "110816.015000", "110818.015000", "110820.015000", "110822.015000", "110824.015000", "110826.015000", "110828.015000", "110830.015000", "110832.015000", "110834.015000", "110836.015000", "110838.015000", "110840.015000", "110842.031000", "110844.031000", "110846.015000", "110848.015000", "110850.015000", "110852.015000", "110854.015000", "110856.015000", "110858.015000", "110900.015000", "110902.015000", "110904.015000", "110906.015000", "110908.015000", "110910.031000", "110912.015000", "110914.015000", "110916.015000", "110918.015000", "110920.031000", "110922.015000", "110924.015000", "110926.015000", "110928.015000", "110930.031000", "110932.015000", "110934.015000", "110936.015000", "110938.015000", "110940.015000", "110942.031000", "110944.015000", "110946.015000", "110948.015000", "110950.015000", "110952.015000", "110954.015000", "110956.015000", "110958.015000", "111000.015000", "111002.031000", "111004.015000", "111006.015000", "111008.015000", "111010.015000", "111012.015000", "111014.015000", "111016.015000", "111018.015000", "111020.015000", "111022.015000", "111024.015000", "111026.015000", "111028.015000", "111030.015000", "111032.015000", "111034.015000", "111036.015000", "111038.015000", "111040.015000", "111042.015000", "111044.015000", "111046.015000", "111048.015000", "111050.015000", "111052.015000", "111054.031000", "111056.015000", "111058.015000", "111100.015000", "111102.015000", "111104.015000", "111106.015000", "111108.015000", "111110.015000", "111112.015000", "111114.015000", "111116.015000", "111118.015000", "111120.015000", "111122.015000", "111124.015000", "111126.015000", "111128.015000", "111130.015000", "111132.015000", "111134.015000", "111136.015000", "111138.015000", "111140.031000", "111142.015000", "111144.015000", "111146.015000", "111148.015000", "111150.015000", "111152.015000", "111154.015000", "111156.015000", "111158.031000", "111200.015000", "111202.015000", "111204.015000", "111206.015000", "111208.031000", "111210.015000", "111212.031000", "111214.031000", "111216.015000", "111218.015000", "111220.015000", "111222.015000", "111224.015000", "111226.015000", "111228.015000", "111229.593000"],
      "InstanceCreationTime": ["110532.031000", "110534.015000", "110536.015000", "110538.015000", "110540.015000", "110542.015000", "110544.015000", "110546.015000", "110548.015000", "110550.015000", "110552.015000", "110554.015000", "110556.015000", "110558.015000", "110600.015000", "110602.015000", "110604.031000", "110606.015000", "110608.015000", "110610.015000", "110612.015000", "110614.015000", "110616.015000", "110618.015000", "110620.015000", "110622.015000", "110624.015000", "110626.015000", "110628.015000", "110630.015000", "110632.015000", "110634.015000", "110636.015000", "110638.015000", "110640.015000", "110642.015000", "110644.015000", "110646.015000", "110648.015000", "110650.015000", "110652.015000", "110654.015000", "110656.015000", "110658.015000", "110700.015000", "110702.015000", "110704.015000", "110706.015000", "110708.015000", "110710.015000", "110712.015000", "110714.015000", "110716.015000", "110718.015000", "110720.015000", "110722.015000", "110724.015000", "110726.015000", "110728.015000", "110730.015000", "110732.015000", "110734.015000", "110736.015000", "110738.015000", "110740.015000", "110742.031000", "110744.015000", "110746.015000", "110748.015000", "110750.015000", "110752.031000", "110754.015000", "110756.015000", "110758.015000", "110800.015000", "110802.015000", "110804.015000", "110806.015000", "110808.015000", "110810.015000", "110812.015000", "110814.015000", "110816.015000", "110818.015000", "110820.015000", "110822.015000", "110824.015000", "110826.015000", "110828.015000", "110830.015000", "110832.015000", "110834.015000", "110836.015000", "110838.015000", "110840.015000", "110842.031000", "110844.031000", "110846.015000", "110848.015000", "110850.015000", "110852.015000", "110854.015000", "110856.015000", "110858.015000", "110900.015000", "110902.015000", "110904.015000", "110906.015000", "110908.015000", "110910.031000", "110912.015000", "110914.015000", "110916.015000", "110918.015000", "110920.031000", "110922.015000", "110924.015000", "110926.015000", "110928.015000", "110930.031000", "110932.015000", "110934.015000", "110936.015000", "110938.015000", "110940.015000", "110942.031000", "110944.015000", "110946.015000", "110948.015000", "110950.015000", "110952.015000", "110954.015000", "110956.015000", "110958.015000", "111000.015000", "111002.031000", "111004.015000", "111006.015000", "111008.015000", "111010.015000", "111012.015000", "111014.015000", "111016.015000", "111018.015000", "111020.015000", "111022.015000", "111024.015000", "111026.015000", "111028.015000", "111030.015000", "111032.015000", "111034.015000", "111036.015000", "111038.015000", "111040.015000", "111042.015000", "111044.015000", "111046.015000", "111048.015000", "111050.015000", "111052.015000", "111054.031000", "111056.015000", "111058.015000", "111100.015000", "111102.015000", "111104.015000", "111106.015000", "111108.015000", "111110.015000", "111112.015000", "111114.015000", "111116.015000", "111118.015000", "111120.015000", "111122.015000", "111124.015000", "111126.015000", "111128.015000", "111130.015000", "111132.015000", "111134.015000", "111136.015000", "111138.015000", "111140.031000", "111142.015000", "111144.015000", "111146.015000", "111148.015000", "111150.015000", "111152.015000", "111154.015000", "111156.015000", "111158.031000", "111200.015000", "111202.015000", "111204.015000", "111206.015000", "111208.031000", "111210.015000", "111212.031000", "111214.031000", "111216.015000", "111218.015000", "111220.015000", "111222.015000", "111224.015000", "111226.015000", "111228.015000", "111229.593000"],
      "InstanceNumber": [1, 2, 3, 4, 5, 6, 7, 8, 9, 10, 11, 12, 13, 14, 15, 16, 17, 18, 19, 20, 21, 22, 23, 24, 25, 26, 27, 28, 29, 30, 31, 32, 33, 34, 35, 36, 37, 38, 39, 40, 41, 42, 43, 44, 45, 46, 47, 48, 49, 50, 51, 52, 53, 54, 55, 56, 57, 58, 59, 60, 61, 62, 63, 64, 65, 66, 67, 68, 69, 70, 71, 72, 73, 74, 75, 76, 77, 78, 79, 80, 81, 82, 83, 84, 85, 86, 87, 88, 89, 90, 91, 92, 93, 94, 95, 96, 97, 98, 99, 100, 101, 102, 103, 104, 105, 106, 107, 108, 109, 110, 111, 112, 113, 114, 115, 116, 117, 118, 119, 120, 121, 122, 123, 124, 125, 126, 127, 128, 129, 130, 131, 132, 133, 134, 135, 136, 137, 138, 139, 140, 141, 142, 143, 144, 145, 146, 147, 148, 149, 150, 151, 152, 153, 154, 155, 156, 157, 158, 159, 160, 161, 162, 163, 164, 165, 166, 167, 168, 169, 170, 171, 172, 173, 174, 175, 176, 177, 178, 179, 180, 181, 182, 183, 184, 185, 186, 187, 188, 189, 190, 191, 192, 193, 194, 195, 196, 197, 198, 199, 200, 201, 202, 203, 204, 205, 206, 207, 208, 209, 210],
      "LargestImagePixelValue": [2106, 2027, 1999, 1973, 1968, 1975, 1955, 1951, 1967, 1943, 1972, 1975, 1971, 1969, 1967, 1955, 1962, 1967, 1978, 1953, 1980, 1989, 1978, 1988, 1980, 1965, 1987, 1983, 1982, 1982, 1990, 1989, 1980, 1983, 1982, 1984, 2010, 1981, 1996, 1983, 1975, 1974, 1978, 1989, 1986, 1997, 1969, 1986, 1991, 1984, 1982, 1994, 1985, 2007, 1980, 1992, 1995, 1995, 1994, 1981, 1990, 1968, 1994, 1976, 1979, 1988, 1973, 1981, 1972, 1984, 1977, 1979, 1989, 1983, 1973, 1975, 1986, 1995, 1970, 2009, 1976, 1979, 1979, 2004, 1995, 1998, 1985, 1980, 2004, 1999, 1995, 2000, 2003, 1985, 2000, 2008, 1999, 2015, 2016, 1996, 1995, 1990, 2013, 2010, 2003, 1997, 2007, 1999, 1999, 2005, 2014, 1995, 1989, 1994, 2014, 1986, 2003, 2004, 1992, 2001, 1992, 2000, 1996, 1997, 1972, 1998, 1982, 2008, 2003, 2000, 1988, 2013, 2006, 2001, 2012, 1994, 2006, 1990, 2002, 2000, 1985, 1996, 1996, 2017, 1991, 1989, 2000, 2001, 1989, 1985, 1996, 2000, 2002, 1994, 1989, 2020, 1994, 2002, 1993, 2150, 1986, 2007, 2006, 1983, 2001, 2007, 2001, 2002, 2002, 1992, 2137, 2015, 2014, 1997, 2003, 1998, 2018, 2005, 2002, 2011, 2022, 1990, 2012, 2007, 1999, 2001, 2010, 2014, 2025, 2007, 1996, 2005, 2016, 1997, 2013, 2010, 2004, 2022, 2004, 2025, 2008, 2020, 2010, 2012, 2016, 1982, 2003, 1985, 1999, 1988],
      "WindowCenter": [762.0, 757.0, 754.0, 753.0, 752.0, 753.0, 753.0, 754.0, 753.0, 753.0, 753.0, 753.0, 753.0, 752.0, 753.0, 753.0, 752.0, 752.0, 751.0, 751.0, 752.0, 751.0, 751.0, 752.0, 753.0, 753.0, 753.0, 752.0, 752.0, 752.0, 753.0, 753.0, 753.0, 753.0, 752.0, 752.0, 753.0, 754.0, 754.0, 753.0, 752.0, 752.0, 752.0, 752.0, 752.0, 752.0, 752.0, 752.0, 751.0, 752.0, 752.0, 753.0, 753.0, 752.0, 752.0, 752.0, 751.0, 751.0, 751.0, 751.0, 752.0, 752.0, 753.0, 753.0, 752.0, 752.0, 752.0, 752.0, 752.0, 752.0, 751.0, 752.0, 752.0, 752.0, 752.0, 751.0, 751.0, 751.0, 752.0, 752.0, 752.0, 752.0, 752.0, 751.0, 751.0, 751.0, 752.0, 753.0, 753.0, 753.0, 753.0, 752.0, 753.0, 753.0, 753.0, 753.0, 753.0, 754.0, 754.0, 754.0, 753.0, 753.0, 753.0, 754.0, 753.0, 753.0, 753.0, 752.0, 753.0, 753.0, 754.0, 754.0, 754.0, 754.0, 754.0, 754.0, 754.0, 754.0, 754.0, 754.0, 754.0, 754.0, 753.0, 753.0, 753.0, 754.0, 753.0, 754.0, 754.0, 753.0, 753.0, 753.0, 753.0, 753.0, 754.0, 754.0, 754.0, 753.0, 753.0, 752.0, 752.0, 753.0, 752.0, 753.0, 753.0, 753.0, 753.0, 753.0, 753.0, 753.0, 753.0, 753.0, 753.0, 753.0, 753.0, 753.0, 753.0, 753.0, 753.0, 754.0, 752.0, 753.0, 754.0, 754.0, 753.0, 753.0, 753.0, 753.0, 753.0, 752.0, 754.0, 753.0, 754.0, 754.0, 754.0, 753.0, 753.0, 754.0, 754.0, 753.0, 753.0, 752.0, 752.0, 752.0, 752.0, 753.0, 753.0, 753.0, 754.0, 755.0, 754.0, 754.0, 753.0, 753.0, 753.0, 753.0, 753.0, 754.0, 754.0, 754.0, 753.0, 753.0, 752.0, 753.0, 753.0, 754.0, 753.0, 753.0, 752.0, 752.0],
      "WindowWidth": [1627.0, 1612.0, 1605.0, 1603.0, 1599.0, 1603.0, 1603.0, 1604.0, 1603.0, 1602.0, 1602.0, 1602.0, 1601.0, 1600.0, 1601.0, 1602.0, 1599.0, 1598.0, 1597.0, 1598.0, 1599.0, 1597.0, 1598.0, 1599.0, 1603.0, 1602.0, 1601.0, 1599.0, 1599.0, 1599.0, 1601.0, 1602.0, 1601.0, 1601.0, 1599.0, 1599.0, 1601.0, 1604.0, 1603.0, 1601.0, 1600.0, 1600.0, 1599.0, 1599.0, 1600.0, 1601.0, 1600.0, 1599.0, 1598.0, 1599.0, 1600.0, 1602.0, 1601.0, 1601.0, 1599.0, 1600.0, 1598.0, 1598.0, 1596.0, 1596.0, 1599.0, 1600.0, 1603.0, 1601.0, 1600.0, 1600.0, 1600.0, 1600.0, 1599.0, 1599.0, 1598.0, 1600.0, 1599.0, 1599.0, 1598.0, 1596.0, 1597.0, 1597.0, 1599.0, 1598.0, 1600.0, 1600.0, 1598.0, 1598.0, 1597.0, 1598.0, 1599.0, 1601.0, 1602.0, 1601.0, 1601.0, 1600.0, 1602.0, 1602.0, 1603.0, 1602.0, 1603.0, 1605.0, 1604.0, 1603.0, 1602.0, 1602.0, 1603.0, 1604.0, 1603.0, 1602.0, 1601.0, 1600.0, 1602.0, 1602.0, 1604.0, 1605.0, 1603.0, 1604.0, 1603.0, 1605.0, 1605.0, 1604.0, 1604.0, 1604.0, 1604.0, 1603.0, 1602.0, 1603.0, 1602.0, 1603.0, 1602.0, 1604.0, 1604.0, 1601.0, 1601.0, 1601.0, 1601.0, 1603.0, 1604.0, 1605.0, 1604.0, 1603.0, 1601.0, 1599.0, 1600.0, 1601.0, 1600.0, 1602.0, 1601.0, 1602.0, 1602.0, 1601.0, 1601.0, 1601.0, 1601.0, 1601.0, 1602.0, 1602.0, 1601.0, 1601.0, 1602.0, 1603.0, 1602.0, 1604.0, 1600.0, 1602.0, 1603.0, 1604.0, 1603.0, 1602.0, 1602.0, 1602.0, 1602.0, 1600.0, 1603.0, 1601.0, 1603.0, 1605.0, 1603.0, 1602.0, 1602.0, 1604.0, 1604.0, 1601.0, 1601.0, 1598.0, 1599.0, 1600.0, 1600.0, 1601.0, 1601.0, 1603.0, 1604.0, 1606.0, 1605.0, 1603.0, 1602.0, 1600.0, 1602.0, 1603.0, 1603.0, 1604.0, 1604.0, 1604.0, 1602.0, 1601.0, 1600.0, 1601.0, 1603.0, 1604.0, 1602.0, 1601.0, 1599.0, 1601.0]
    },
    "slices": {}
  }
}