{
  "AcquisitionMatrixPE": 64,
  "AcquisitionNumber": 1,
  "AcquisitionTime": "10:15:41.042500",
  "BandwidthPerPixelPhaseEncode": 30.637,
  "BaseResolution": 64,
  "BidsGuess": [
    "func",
    "_acq-epfid2_dir-AP_run-5_bold"
],
  "CoilCombinationMethod": "Sum of Squares",
  "CoilString": "C:HEA;HEP",
  "ConversionSoftware": "dcm2niix",
  "ConversionSoftwareVersion": "v1.0.20240202",
  "DerivedVendorReportedEchoSpacing": 0.000510004,
  "DeviceSerialNumber": "35119",
  "DwellTime": 3.5e-06,
  "EchoTime": 0.03,
  "EffectiveEchoSpacing": 0.000510004,
  "FlipAngle": 78,
  "HeudiconvVersion": "1.1.6",
  "ImageComments": "V",
  "ImageOrientationPatientDICOM": [1, 0, 0, 0, 0.904827, -0.425779],
  "ImageOrientationText": "Tra>Cor(-25.2)",
  "ImageType": [
    "ORIGINAL",
    "PRIMARY",
    "M",
    "ND",
    "MOSAIC"
],
  "ImagingFrequency": 123.251802,
  "InPlanePhaseEncodingDirectionDICOM": "COL",
  "InstitutionAddress": "Chaucer Road  15,Cambridge,UK,GB,CB2 2EF",
  "InstitutionName": "MRC-CBU",
  "MRAcquisitionType": "2D",
  "MagneticFieldStrength": 3,
  "Manufacturer": "Siemens",
  "ManufacturersModelName": "TrioTim",
  "MatrixCoilMode": "SENSE",
  "Modality": "MR",
  "NonlinearGradientCorrection": false,
  "PartialFourier": 1,
  "PatientPosition": "HFS",
  "PercentPhaseFOV": 100,
  "PercentSampling": 100,
  "PhaseEncodingDirection": "j-",
  "PhaseEncodingSteps": 64,
  "PhaseResolution": 1,
  "PixelBandwidth": 2230,
  "ProcedureStepDescription": "CBU^Neuroimaging",
  "ProtocolName": "CBU_DWEPI_BOLD210",
  "PulseSequenceDetails": "%SiemensSeq%\\ep2d_bold",
  "ReceiveCoilName": "HeadMatrix",
  "ReconMatrixPE": 64,
  "RepetitionTime": 2,
  "SAR": 0.134505,
  "ScanOptions": "FS",
  "ScanningSequence": "EP",
  "SequenceName": "*epfid2d1_64",
  "SequenceVariant": "SK",
  "SeriesDescription": "CBU_DWEPI_BOLD210",
  "SeriesNumber": 5,
  "ShimSetting": [-7826, -8756, -2054, 827, 86, 418, -65, 142],
  "SliceThickness": 3,
  "SliceTiming": [0, 1.035, 0.0625, 1.095, 0.1225, 1.1575, 0.1825, 1.2175, 0.245, 1.2775, 0.305, 1.34, 0.365, 1.4, 0.4275, 1.46, 0.4875, 1.5225, 0.5475, 1.5825, 0.61, 1.6425, 0.67, 1.705, 0.73, 1.765, 0.7925, 1.825, 0.8525, 1.8875, 0.9125, 1.9475, 0.975],
  "SoftwareVersions": "syngo MR B15",
  "SpacingBetweenSlices": 3.75,
  "StationName": "MRC35119",
  "TaskName": "faceprocessing",
  "TotalReadoutTime": 0.0321303,
  "TxRefAmp": 300.239,
  "dcmmeta_affine": [
    [-3.0, 0.0, 0.0, 98.03389739990234],
    [0.0, 2.7144811153411865, -1.596671223640442, -50.36967849731445],
    [0.0, 1.2773369550704956, 3.393101215362549, -80.83121490478516],
    [0.0, 0.0, 0.0, 1.0]
],
  "dcmmeta_reorient_transform": [
    [0.0, -1.0, 0.0, 63.0],
    [1.0, 0.0, 0.0, 0.0],
    [0.0, 0.0, 1.0, 0.0],
    [0.0, 0.0, 0.0, 1.0]
],
  "dcmmeta_shape": [64, 64, 33, 210],
  "dcmmeta_slice_dim": 2,
  "dcmmeta_version": 0.6,
  "global": {
    "const": {
      "AcquisitionMatrix": [64, 0, 0, 64],
      "AngioFlag": "N",
      "BitsAllocated": 16,
      "BitsStored": 12,
      "Columns": 384,
      "EchoNumbers": 1,
      "EchoTime": 30.0,
      "EchoTrainLength": 1,
      "FlipAngle": 78.0,
      "HighBit": 11,
      "ImageOrientationPatient": [1.0, 0.0, 0.0, 0.0, 0.904827, -0.425779],
      "ImagePositionPatient": [-578.033898, -554.959586, 204.014934],
      "ImageType": [
        "ORIGINAL",
        "PRIMARY",
        "M",
        "ND",
        "MOSAIC"
],
      "ImagedNucleus": "1H",
      "ImagingFrequency": 123.251802,
      "InPlanePhaseEncodingDirection": "COL",
      "MRAcquisitionType": "2D",
      "MagneticFieldStrength": 3.0,
      "Manufacturer": "SIEMENS",
      "ManufacturerModelName": "TrioTim",
      "Modality": "MR",
      "NumberOfAverages": 1.0,
      "NumberOfPhaseEncodingSteps": 64,
      "PercentPhaseFieldOfView": 100.0,
      "PercentSampling": 100.0,
      "PerformedProcedureStepStartTime": "095125.984000",
      "PhotometricInterpretation": "MONOCHROME2",
      "PixelAspectRatio": [1, 1],
      "PixelBandwidth": 2230.0,
      "PixelRepresentation": 0,
      "PixelSpacing": [3.0, 3.0],
      "ProtocolName": "CBU_DWEPI_BOLD210",
      "RepetitionTime": 2000.0,
      "Rows": 384,
      "SAR": 0.134505,
      "SamplesPerPixel": 1,
      "ScanOptions": "FS",
      "ScanningSequence": "EP",
      "SequenceName": "*epfid2d1_64",
      "SequenceVariant": "SK",
      "SeriesDescription": "CBU_DWEPI_BOLD210",
      "SeriesNumber": 5,
      "SeriesTime": "101543.843000",
      "SliceLocation": -51.692062,
      "SliceThickness": 3.0,
      "SmallestImagePixelValue": 0,
      "SoftwareVersions": "syngo MR B15",
      "SpacingBetweenSlices": 3.75,
      "SpecificCharacterSet": "ISO_IR 100",
      "StudyID": "1",
      "StudyTime": "095125.921000",
      "TransmitCoilName": "Body",
      "VariableFlipAngleFlag": "N",
      "WindowCenterWidthExplanation": "Algo1",
      "dBdt": 0.0},
    "slices": {}
  },
  "time": {
    "samples": {
      "AcquisitionNumber": [1, 2, 3, 4, 5, 6, 7, 8, 9, 10, 11, 12, 13, 14, 15, 16, 17, 18, 19, 20, 21, 22, 23, 24, 25, 26, 27, 28, 29, 30, 31, 32, 33, 34, 35, 36, 37, 38, 39, 40, 41, 42, 43, 44, 45, 46, 47, 48, 49, 50, 51, 52, 53, 54, 55, 56, 57, 58, 59, 60, 61, 62, 63, 64, 65, 66, 67, 68, 69, 70, 71, 72, 73, 74, 75, 76, 77, 78, 79, 80, 81, 82, 83, 84, 85, 86, 87, 88, 89, 90, 91, 92, 93, 94, 95, 96, 97, 98, 99, 100, 101, 102, 103, 104, 105, 106, 107, 108, 109, 110, 111, 112, 113, 114, 115, 116, 117, 118, 119, 120, 121, 122, 123, 124, 125, 126, 127, 128, 129, 130, 131, 132, 133, 134, 135, 136, 137, 138, 139, 140, 141, 142, 143, 144, 145, 146, 147, 148, 149, 150, 151, 152, 153, 154, 155, 156, 157, 158, 159, 160, 161, 162, 163, 164, 165, 166, 167, 168, 169, 170, 171, 172, 173, 174, 175, 176, 177, 178, 179, 180, 181, 182, 183, 184, 185, 186, 187, 188, 189, 190, 191, 192, 193, 194, 195, 196, 197, 198, 199, 200, 201, 202, 203, 204, 205, 206, 207, 208, 209, 210],
      "AcquisitionTime": ["101541.042500", "101543.052500", "101545.060000", "101547.067500", "101549.075000", "101551.085000", "101553.092500", "101555.100000", "101557.107500", "101559.115000", "101601.125000", "101603.132500", "101605.140000", "101607.147500", "101609.155000", "101611.165000", "101613.172500", "101615.180000", "101617.187500", "101619.195000", "101621.205000", "101623.212500", "101625.220000", "101627.227500", "101629.237500", "101631.245000", "101633.252500", "101635.260000", "101637.267500", "101639.277500", "101641.285000", "101643.292500", "101645.300000", "101647.307500", "101649.317500", "101651.325000", "101653.332500", "101655.340000", "101657.350000", "101659.357500", "101701.365000", "101703.372500", "101705.380000", "101707.390000", "101709.397500", "101711.405000", "101713.412500", "101715.420000", "101717.430000", "101719.437500", "101721.445000", "101723.452500", "101725.462500", "101727.470000", "101729.477500", "101731.485000", "101733.492500", "101735.502500", "101737.510000", "101739.517500", "101741.525000", "101743.532500", "101745.542500", "101747.550000", "101749.557500", "101751.565000", "101753.572500", "101755.582500", "101757.590000", "101759.597500", "101801.605000", "101803.615000", "101805.622500", "101807.630000", "101809.637500", "101811.645000", "101813.655000", "101815.662500", "101817.670000", "101819.677500", "101821.685000", "101823.695000", "101825.702500", "101827.710000", "101829.717500", "101831.727500", "101833.735000", "101835.742500", "101837.750000", "101839.757500", "101841.767500", "101843.775000", "101845.782500", "101847.790000", "101849.797500", "101851.807500", "101853.815000", "101855.822500", "101857.830000", "101859.840000", "101901.847500", "101903.855000", "101905.862500", "101907.870000", "101909.880000", "101911.887500", "101913.895000", "101915.902500", "101917.910000", "101919.920000", "101921.927500", "101923.935000", "101925.942500", "101927.950000", "101929.960000", "101931.967500", "101933.975000", "101935.982500", "101937.992500", "101940.000000", "101942.007500", "101944.015000", "101946.022500", "101948.032500", "101950.040000", "101952.047500", "101954.055000", "101956.062500", "101958.072500", "102000.080000", "102002.087500", "102004.095000", "102006.105000", "102008.112500", "102010.120000", "102012.127500", "102014.135000", "102016.145000", "102018.152500", "102020.160000", "102022.167500", "102024.175000", "102026.185000", "102028.192500", "102030.200000", "102032.207500", "102034.217500", "102036.225000", "102038.232500", "102040.240000", "102042.247500", "102044.257500", "102046.265000", "102048.272500", "102050.280000", "102052.287500", "102054.297500", "102056.305000", "102058.312500", "102100.320000", "102102.327500", "102104.337500", "102106.345000", "102108.352500", "102110.360000", "102112.370000", "102114.377500", "102116.385000", "102118.392500", "102120.400000", "102122.410000", "102124.417500", "102126.425000", "102128.432500", "102130.440000", "102132.450000", "102134.457500", "102136.465000", "102138.472500", "102140.482500", "102142.490000", "102144.497500", "102146.505000", "102148.512500", "102150.522500", "102152.530000", "102154.537500", "102156.545000", "102158.552500", "102200.562500", "102202.570000", "102204.577500", "102206.585000", "102208.595000", "102210.602500", "102212.610000", "102214.617500", "102216.625000", "102218.635000", "102220.642500", "102222.650000", "102224.657500", "102226.665000", "102228.675000", "102230.682500", "102232.690000", "102234.697500", "102236.705000", "102238.715000", "102240.722500"],
      "ContentTime": ["101543.859000", "101545.843000", "101547.843000", "101549.843000", "101551.843000", "101553.843000", "101555.843000", "101557.843000", "101559.843000", "101601.843000", "101603.843000", "101605.843000", "101607.843000", "101609.843000", "101611.843000", "101613.843000", "101615.843000", "101617.843000", "101619.843000", "101621.843000", "101623.843000", "101625.843000", "101627.843000", "101629.843000", "101631.843000", "101633.843000", "101635.843000", "101637.843000", "101639.843000", "101641.843000", "101643.843000", "101645.843000", "101647.843000", "101649.843000", "101651.843000", "101653.843000", "101655.843000", "101657.843000", "101659.843000", "101701.843000", "101703.843000", "101705.843000", "101707.843000", "101709.843000", "101711.843000", "101713.843000", "101715.843000", "101717.843000", "101719.843000", "101721.843000", "101723.843000", "101725.843000", "101727.843000", "101729.843000", "101731.843000", "101733.843000", "101735.843000", "101737.843000", "101739.843000", "101741.843000", "101743.843000", "101745.843000", "101747.843000", "101749.843000", "101751.843000", "101753.843000", "101755.843000", "101757.843000", "101759.843000", "101801.843000", "101803.843000", "101805.843000", "101807.843000", "101809.843000", "101811.843000", "101813.843000", "101815.843000", "101817.843000", "101819.843000", "101821.843000", "101823.843000", "101825.843000", "101827.843000", "101829.843000", "101831.843000", "101833.843000", "101835.843000", "101837.843000", "101839.843000", "101841.843000", "101843.843000", "101845.843000", "101847.843000", "101849.843000", "101851.843000", "101853.843000", "101855.843000", "101857.843000", "101859.843000", "101901.843000", "101903.843000", "101905.843000", "101907.843000", "101909.843000", "101911.843000", "101913.843000", "101915.843000", "101917.843000", "101919.843000", "101921.843000", "101923.843000", "101925.843000", "101927.843000", "101929.843000", "101931.843000", "101933.843000", "101935.843000", "101937.843000", "101939.843000", "101941.843000", "101943.843000", "101945.843000", "101947.843000", "101949.843000", "101951.843000", "101953.843000", "101955.843000", "101957.843000", "101959.843000", "102001.843000", "102003.843000", "102005.843000", "102007.843000", "102009.843000", "102011.843000", "102013.843000", "102015.843000", "102017.843000", "102019.843000", "102021.843000", "102023.843000", "102025.843000", "102027.843000", "102029.843000", "102031.843000", "102033.843000", "102035.843000", "102037.843000", "102039.843000", "102041.843000", "102043.843000", "102045.843000", "102047.843000", "102049.843000", "102051.843000", "102053.843000", "102055.843000", "102057.843000", "102059.843000", "102101.843000", "102103.843000", "102105.843000", "102107.843000", "102109.843000", "102111.843000", "102113.843000", "102115.843000", "102117.843000", "102119.843000", "102121.843000", "102123.843000", "102125.843000", "102127.843000", "102129.843000", "102131.843000", "102133.843000", "102135.843000", "102137.843000", "102139.843000", "102141.843000", "102143.843000", "102146.343000", "102149.343000", "102150.343000", "102151.843000", "102153.843000", "102155.843000", "102157.843000", "102159.843000", "102201.843000", "102203.843000", "102205.843000", "102207.843000", "102209.843000", "102211.843000", "102214.343000", "102216.843000", "102219.843000", "102220.343000", "102221.843000", "102223.843000", "102225.843000", "102227.843000", "102230.343000", "102231.843000", "102233.843000", "102236.343000", "102237.843000", "102239.843000", "102241.453000"],
      "InstanceCreationTime": ["101543.859000", "101545.843000", "101547.843000", "101549.843000", "101551.843000", "101553.843000", "101555.843000", "101557.843000", "101559.843000", "101601.843000", "101603.843000", "101605.843000", "101607.843000", "101609.843000", "101611.843000", "101613.843000", "101615.843000", "101617.843000", "101619.843000", "101621.843000", "101623.843000", "101625.843000", "101627.843000", "101629.843000", "101631.843000", "101633.843000", "101635.843000", "101637.843000", "101639.843000", "101641.843000", "101643.843000", "101645.843000", "101647.843000", "101649.843000", "101651.843000", "101653.843000", "101655.843000", "101657.843000", "101659.843000", "101701.843000", "101703.843000", "101705.843000", "101707.843000", "101709.843000", "101711.843000", "101713.843000", "101715.843000", "101717.843000", "101719.843000", "101721.843000", "101723.843000", "101725.843000", "101727.843000", "101729.843000", "101731.843000", "101733.843000", "101735.843000", "101737.843000", "101739.843000", "101741.843000", "101743.843000", "101745.843000", "101747.843000", "101749.843000", "101751.843000", "101753.843000", "101755.843000", "101757.843000", "101759.843000", "101801.843000", "101803.843000", "101805.843000", "101807.843000", "101809.843000", "101811.843000", "101813.843000", "101815.843000", "101817.843000", "101819.843000", "101821.843000", "101823.843000", "101825.843000", "101827.843000", "101829.843000", "101831.843000", "101833.843000", "101835.843000", "101837.843000", "101839.843000", "101841.843000", "101843.843000", "101845.843000", "101847.843000", "101849.843000", "101851.843000", "101853.843000", "101855.843000", "101857.843000", "101859.843000", "101901.843000", "101903.843000", "101905.843000", "101907.843000", "101909.843000", "101911.843000", "101913.843000", "101915.843000", "101917.843000", "101919.843000", "101921.843000", "101923.843000", "101925.843000", "101927.843000", "101929.843000", "101931.843000", "101933.843000", "101935.843000", "101937.843000", "101939.843000", "101941.843000", "101943.843000", "101945.843000", "101947.843000", "101949.843000", "101951.843000", "101953.843000", "101955.843000", "101957.843000", "101959.843000", "102001.843000", "102003.843000", "102005.843000", "102007.843000", "102009.843000", "102011.843000", "102013.843000", "102015.843000", "102017.843000", "102019.843000", "102021.843000", "102023.843000", "102025.843000", "102027.843000", "102029.843000", "102031.843000", "102033.843000", "102035.843000", "102037.843000", "102039.843000", "102041.843000", "102043.843000", "102045.843000", "102047.843000", "102049.843000", "102051.843000", "102053.843000", "102055.843000", "102057.843000", "102059.843000", "102101.843000", "102103.843000", "102105.843000", "102107.843000", "102109.843000", "102111.843000", "102113.843000", "102115.843000", "102117.843000", "102119.843000", "102121.843000", "102123.843000", "102125.843000", "102127.843000", "102129.843000", "102131.843000", "102133.843000", "102135.843000", "102137.843000", "102139.843000", "102141.843000", "102143.843000", "102146.343000", "102149.343000", "102150.343000", "102151.843000", "102153.843000", "102155.843000", "102157.843000", "102159.843000", "102201.843000", "102203.843000", "102205.843000", "102207.843000", "102209.843000", "102211.843000", "102214.343000", "102216.843000", "102219.843000", "102220.343000", "102221.843000", "102223.843000", "102225.843000", "102227.843000", "102230.343000", "102231.843000", "102233.843000", "102236.343000", "102237.843000", "102239.843000", "102241.453000"],
      "InstanceNumber": [1, 2, 3, 4, 5, 6, 7, 8, 9, 10, 11, 12, 13, 14, 15, 16, 17, 18, 19, 20, 21, 22, 23, 24, 25, 26, 27, 28, 29, 30, 31, 32, 33, 34, 35, 36, 37, 38, 39, 40, 41, 42, 43, 44, 45, 46, 47, 48, 49, 50, 51, 52, 53, 54, 55, 56, 57, 58, 59, 60, 61, 62, 63, 64, 65, 66, 67, 68, 69, 70, 71, 72, 73, 74, 75, 76, 77, 78, 79, 80, 81, 82, 83, 84, 85, 86, 87, 88, 89, 90, 91, 92, 93, 94, 95, 96, 97, 98, 99, 100, 101, 102, 103, 104, 105, 106, 107, 108, 109, 110, 111, 112, 113, 114, 115, 116, 117, 118, 119, 120, 121, 122, 123, 124, 125, 126, 127, 128, 129, 130, 131, 132, 133, 134, 135, 136, 137, 138, 139, 140, 141, 142, 143, 144, 145, 146, 147, 148, 149, 150, 151, 152, 153, 154, 155, 156, 157, 158, 159, 160, 161, 162, 163, 164, 165, 166, 167, 168, 169, 170, 171, 172, 173, 174, 175, 176, 177, 178, 179, 180, 181, 182, 183, 184, 185, 186, 187, 188, 189, 190, 191, 192, 193, 194, 195, 196, 197, 198, 199, 200, 201, 202, 203, 204, 205, 206, 207, 208, 209, 210],
      "LargestImagePixelValue": [1840, 1740, 1714, 1709, 1719, 1706, 1717, 1702, 1689, 1702, 1697, 1707, 1710, 1723, 1717, 1718, 1718, 1715, 1710, 1724, 1755, 1749, 1706, 1717, 1706, 1710, 1717, 1723, 1725, 1720, 1708, 1734, 1725, 1708, 1699, 1711, 1719, 1701, 1706, 1720, 1723, 1733, 1716, 1722, 1709, 1717, 1716, 1711, 1721, 1726, 1716, 1725, 1704, 1759, 1703, 1712, 1720, 1731, 1726, 1713, 1732, 1714, 1717, 1720, 1716, 1706, 1705, 1704, 1838, 1718, 1706, 1718, 1713, 1711, 1729, 1711, 1739, 1715, 1710, 1725, 1724, 1735, 1720, 1739, 1713, 1726, 1711, 1714, 1728, 1717, 1714, 1708, 1708, 1712, 1722, 1736, 1725, 1721, 1725, 1730, 1714, 1720, 1713, 1724, 1713, 1714, 1719, 1722, 1720, 1721, 1704, 1732, 1724, 1728, 1730, 1718, 1746, 1728, 1731, 1727, 1735, 1733, 1742, 1713, 1724, 1722, 1723, 1736, 1730, 1734, 1809, 1718, 1736, 1717, 1724, 1716, 1727, 1740, 1734, 1747, 1748, 1735, 1739, 1740, 1738, 1722, 1722, 1716, 1770, 1738, 1729, 1733, 1745, 1735, 1732, 1749, 1728, 1725, 1739, 1742, 1729, 1731, 1746, 1725, 1720, 1731, 1745, 1733, 1724, 1741, 1739, 1738, 1740, 1743, 1744, 1737, 1731, 1729, 1744, 1747, 1746, 1751, 1733, 1734, 1727, 1730, 1744, 1731, 1754, 1738, 1735, 1742, 1746, 1743, 1742, 1734, 1728, 1735, 1736, 1753, 1757, 1736, 1723, 1725, 1741, 1729, 1734, 1736, 1745, 1742],
      "WindowCenter": [739.0, 735.0, 733.0, 733.0, 733.0, 732.0, 732.0, 733.0, 734.0, 734.0, 734.0, 734.0, 735.0, 734.0, 734.0, 736.0, 736.0, 735.0, 735.0, 736.0, 737.0, 735.0, 734.0, 735.0, 735.0, 735.0, 734.0, 736.0, 737.0, 737.0, 736.0, 736.0, 736.0, 736.0, 736.0, 736.0, 736.0, 735.0, 735.0, 735.0, 735.0, 736.0, 736.0, 736.0, 735.0, 736.0, 736.0, 736.0, 736.0, 736.0, 736.0, 737.0, 737.0, 737.0, 735.0, 735.0, 736.0, 737.0, 739.0, 739.0, 737.0, 736.0, 736.0, 736.0, 736.0, 735.0, 736.0, 735.0, 735.0, 734.0, 735.0, 735.0, 736.0, 738.0, 737.0, 736.0, 735.0, 736.0, 736.0, 736.0, 736.0, 738.0, 738.0, 737.0, 737.0, 737.0, 736.0, 736.0, 736.0, 737.0, 737.0, 736.0, 736.0, 735.0, 735.0, 736.0, 736.0, 736.0, 737.0, 739.0, 736.0, 736.0, 735.0, 736.0, 736.0, 736.0, 735.0, 736.0, 736.0, 737.0, 737.0, 737.0, 736.0, 737.0, 737.0, 736.0, 737.0, 738.0, 738.0, 737.0, 737.0, 737.0, 737.0, 738.0, 738.0, 737.0, 736.0, 736.0, 737.0, 737.0, 737.0, 737.0, 738.0, 738.0, 738.0, 737.0, 736.0, 736.0, 739.0, 740.0, 738.0, 737.0, 737.0, 737.0, 738.0, 739.0, 737.0, 737.0, 737.0, 736.0, 737.0, 739.0, 738.0, 736.0, 737.0, 738.0, 738.0, 737.0, 735.0, 736.0, 737.0, 736.0, 736.0, 737.0, 736.0, 737.0, 737.0, 736.0, 736.0, 737.0, 737.0, 737.0, 738.0, 738.0, 738.0, 738.0, 737.0, 737.0, 738.0, 738.0, 738.0, 737.0, 737.0, 738.0, 737.0, 738.0, 738.0, 738.0, 737.0, 739.0, 739.0, 736.0, 737.0, 738.0, 738.0, 737.0, 737.0, 737.0, 737.0, 738.0, 739.0, 739.0, 739.0, 738.0, 738.0, 737.0, 738.0, 738.0, 739.0, 740.0],
      "WindowWidth": [1565.0, 1554.0, 1548.0, 1548.0, 1548.0, 1546.0, 1547.0, 1550.0, 1550.0, 1551.0, 1550.0, 1552.0, 1552.0, 1550.0, 1550.0, 1556.0, 1557.0, 1553.0, 1553.0, 1556.0, 1558.0, 1554.0, 1552.0, 1552.0, 1553.0, 1553.0, 1552.0, 1555.0, 1558.0, 1557.0, 1555.0, 1556.0, 1556.0, 1555.0, 1555.0, 1555.0, 1555.0, 1554.0, 1554.0, 1553.0, 1554.0, 1555.0, 1555.0, 1555.0, 1554.0, 1556.0, 1557.0, 1556.0, 1555.0, 1556.0, 1556.0, 1559.0, 1559.0, 1558.0, 1555.0, 1554.0, 1555.0, 1557.0, 1564.0, 1563.0, 1558.0, 1555.0, 1555.0, 1557.0, 1556.0, 1554.0, 1555.0, 1554.0, 1553.0, 1550.0, 1553.0, 1554.0, 1556.0, 1560.0, 1559.0, 1554.0, 1554.0, 1556.0, 1557.0, 1556.0, 1557.0, 1561.0, 1560.0, 1558.0, 1557.0, 1558.0, 1557.0, 1556.0, 1556.0, 1558.0, 1559.0, 1557.0, 1556.0, 1554.0, 1554.0, 1555.0, 1555.0, 1555.0, 1559.0, 1563.0, 1557.0, 1555.0, 1554.0, 1557.0, 1557.0, 1555.0, 1554.0, 1555.0, 1556.0, 1558.0, 1558.0, 1557.0, 1556.0, 1557.0, 1558.0, 1557.0, 1558.0, 1560.0, 1560.0, 1558.0, 1558.0, 1557.0, 1558.0, 1560.0, 1560.0, 1558.0, 1555.0, 1557.0, 1559.0, 1559.0, 1559.0, 1558.0, 1560.0, 1560.0, 1560.0, 1558.0, 1556.0, 1557.0, 1563.0, 1565.0, 1560.0, 1558.0, 1558.0, 1560.0, 1562.0, 1564.0, 1559.0, 1558.0, 1558.0, 1555.0, 1558.0, 1563.0, 1561.0, 1557.0, 1559.0, 1562.0, 1560.0, 1557.0, 1554.0, 1556.0, 1559.0, 1557.0, 1557.0, 1558.0, 1557.0, 1558.0, 1558.0, 1557.0, 1556.0, 1557.0, 1558.0, 1560.0, 1560.0, 1560.0, 1560.0, 1560.0, 1559.0, 1559.0, 1561.0, 1561.0, 1560.0, 1559.0, 1559.0, 1559.0, 1559.0, 1560.0, 1561.0, 1560.0, 1558.0, 1564.0, 1562.0, 1556.0, 1558.0, 1560.0, 1560.0, 1558.0, 1557.0, 1558.0, 1558.0, 1560.0, 1563.0, 1564.0, 1563.0, 1561.0, 1561.0, 1559.0, 1560.0, 1561.0, 1562.0, 1565.0]
    },
    "slices": {}
  }
}