{
  "AcquisitionMatrixPE": 64,
  "AcquisitionNumber": 1,
  "AcquisitionTime": "10:07:57.380000",
  "BandwidthPerPixelPhaseEncode": 30.637,
  "BaseResolution": 64,
  "BidsGuess": [
    "func",
    "_acq-epfid2_dir-AP_run-4_bold"
],
  "CoilCombinationMethod": "Sum of Squares",
  "CoilString": "C:HEA;HEP",
  "ConversionSoftware": "dcm2niix",
  "ConversionSoftwareVersion": "v1.0.20240202",
  "DerivedVendorReportedEchoSpacing": 0.000510004,
  "DeviceSerialNumber": "35119",
  "DwellTime": 3.5e-06,
  "EchoTime": 0.03,
  "EffectiveEchoSpacing": 0.000510004,
  "FlipAngle": 78,
  "HeudiconvVersion": "1.1.6",
  "ImageComments": "V",
  "ImageOrientationPatientDICOM": [1, 0, 0, 0, 0.904827, -0.425779],
  "ImageOrientationText": "Tra>Cor(-25.2)",
  "ImageType": [
    "ORIGINAL",
    "PRIMARY",
    "M",
    "ND",
    "MOSAIC"
],
  "ImagingFrequency": 123.251802,
  "InPlanePhaseEncodingDirectionDICOM": "COL",
  "InstitutionAddress": "Chaucer Road  15,Cambridge,UK,GB,CB2 2EF",
  "InstitutionName": "MRC-CBU",
  "MRAcquisitionType": "2D",
  "MagneticFieldStrength": 3,
  "Manufacturer": "Siemens",
  "ManufacturersModelName": "TrioTim",
  "MatrixCoilMode": "SENSE",
  "Modality": "MR",
  "NonlinearGradientCorrection": false,
  "PartialFourier": 1,
  "PatientPosition": "HFS",
  "PercentPhaseFOV": 100,
  "PercentSampling": 100,
  "PhaseEncodingDirection": "j-",
  "PhaseEncodingSteps": 64,
  "PhaseResolution": 1,
  "PixelBandwidth": 2230,
  "ProcedureStepDescription": "CBU^Neuroimaging",
  "ProtocolName": "CBU_DWEPI_BOLD210",
  "PulseSequenceDetails": "%SiemensSeq%\\ep2d_bold",
  "ReceiveCoilName": "HeadMatrix",
  "ReconMatrixPE": 64,
  "RepetitionTime": 2,
  "SAR": 0.134505,
  "ScanOptions": "FS",
  "ScanningSequence": "EP",
  "SequenceName": "*epfid2d1_64",
  "SequenceVariant": "SK",
  "SeriesDescription": "CBU_DWEPI_BOLD210",
  "SeriesNumber": 4,
  "ShimSetting": [-7826, -8756, -2054, 827, 86, 418, -65, 142],
  "SliceThickness": 3,
  "SliceTiming": [0, 1.035, 0.0625, 1.095, 0.1225, 1.1575, 0.1825, 1.2175, 0.245, 1.2775, 0.305, 1.34, 0.365, 1.4, 0.4275, 1.46, 0.4875, 1.5225, 0.5475, 1.5825, 0.61, 1.6425, 0.67, 1.705, 0.73, 1.765, 0.7925, 1.825, 0.8525, 1.8875, 0.9125, 1.9475, 0.975],
  "SoftwareVersions": "syngo MR B15",
  "SpacingBetweenSlices": 3.75,
  "StationName": "MRC35119",
  "TaskName": "faceprocessing",
  "TotalReadoutTime": 0.0321303,
  "TxRefAmp": 300.239,
  "dcmmeta_affine": [
    [-3.0, 0.0, 0.0, 98.03389739990234],
    [0.0, 2.7144811153411865, -1.596671223640442, -50.36967849731445],
    [0.0, 1.2773369550704956, 3.393101215362549, -80.83121490478516],
    [0.0, 0.0, 0.0, 1.0]
],
  "dcmmeta_reorient_transform": [
    [0.0, -1.0, 0.0, 63.0],
    [1.0, 0.0, 0.0, 0.0],
    [0.0, 0.0, 1.0, 0.0],
    [0.0, 0.0, 0.0, 1.0]
],
  "dcmmeta_shape": [64, 64, 33, 210],
  "dcmmeta_slice_dim": 2,
  "dcmmeta_version": 0.6,
  "global": {
    "const": {
      "AcquisitionMatrix": [64, 0, 0, 64],
      "AngioFlag": "N",
      "BitsAllocated": 16,
      "BitsStored": 12,
      "Columns": 384,
      "EchoNumbers": 1,
      "EchoTime": 30.0,
      "EchoTrainLength": 1,
      "FlipAngle": 78.0,
      "HighBit": 11,
      "ImageOrientationPatient": [1.0, 0.0, 0.0, 0.0, 0.904827, -0.425779],
      "ImagePositionPatient": [-578.033898, -554.959586, 204.014934],
      "ImageType": [
        "ORIGINAL",
        "PRIMARY",
        "M",
        "ND",
        "MOSAIC"
],
      "ImagedNucleus": "1H",
      "ImagingFrequency": 123.251802,
      "InPlanePhaseEncodingDirection": "COL",
      "MRAcquisitionType": "2D",
      "MagneticFieldStrength": 3.0,
      "Manufacturer": "SIEMENS",
      "ManufacturerModelName": "TrioTim",
      "Modality": "MR",
      "NumberOfAverages": 1.0,
      "NumberOfPhaseEncodingSteps": 64,
      "PercentPhaseFieldOfView": 100.0,
      "PercentSampling": 100.0,
      "PerformedProcedureStepStartTime": "095125.984000",
      "PhotometricInterpretation": "MONOCHROME2",
      "PixelAspectRatio": [1, 1],
      "PixelBandwidth": 2230.0,
      "PixelRepresentation": 0,
      "PixelSpacing": [3.0, 3.0],
      "ProtocolName": "CBU_DWEPI_BOLD210",
      "RepetitionTime": 2000.0,
      "Rows": 384,
      "SAR": 0.134505,
      "SamplesPerPixel": 1,
      "ScanOptions": "FS",
      "ScanningSequence": "EP",
      "SequenceName": "*epfid2d1_64",
      "SequenceVariant": "SK",
      "SeriesDescription": "CBU_DWEPI_BOLD210",
      "SeriesNumber": 4,
      "SeriesTime": "100759.890000",
      "SliceLocation": -51.692062,
      "SliceThickness": 3.0,
      "SmallestImagePixelValue": 0,
      "SoftwareVersions": "syngo MR B15",
      "SpacingBetweenSlices": 3.75,
      "SpecificCharacterSet": "ISO_IR 100",
      "StudyID": "1",
      "StudyTime": "095125.921000",
      "TransmitCoilName": "Body",
      "VariableFlipAngleFlag": "N",
      "WindowCenterWidthExplanation": "Algo1",
      "dBdt": 0.0},
    "slices": {}
  },
  "time": {
    "samples": {
      "AcquisitionNumber": [1, 2, 3, 4, 5, 6, 7, 8, 9, 10, 11, 12, 13, 14, 15, 16, 17, 18, 19, 20, 21, 22, 23, 24, 25, 26, 27, 28, 29, 30, 31, 32, 33, 34, 35, 36, 37, 38, 39, 40, 41, 42, 43, 44, 45, 46, 47, 48, 49, 50, 51, 52, 53, 54, 55, 56, 57, 58, 59, 60, 61, 62, 63, 64, 65, 66, 67, 68, 69, 70, 71, 72, 73, 74, 75, 76, 77, 78, 79, 80, 81, 82, 83, 84, 85, 86, 87, 88, 89, 90, 91, 92, 93, 94, 95, 96, 97, 98, 99, 100, 101, 102, 103, 104, 105, 106, 107, 108, 109, 110, 111, 112, 113, 114, 115, 116, 117, 118, 119, 120, 121, 122, 123, 124, 125, 126, 127, 128, 129, 130, 131, 132, 133, 134, 135, 136, 137, 138, 139, 140, 141, 142, 143, 144, 145, 146, 147, 148, 149, 150, 151, 152, 153, 154, 155, 156, 157, 158, 159, 160, 161, 162, 163, 164, 165, 166, 167, 168, 169, 170, 171, 172, 173, 174, 175, 176, 177, 178, 179, 180, 181, 182, 183, 184, 185, 186, 187, 188, 189, 190, 191, 192, 193, 194, 195, 196, 197, 198, 199, 200, 201, 202, 203, 204, 205, 206, 207, 208, 209, 210],
      "AcquisitionTime": ["100757.380000", "100759.390000", "100801.397500", "100803.405000", "100805.412500", "100807.420000", "100809.430000", "100811.437500", "100813.445000", "100815.452500", "100817.462500", "100819.470000", "100821.477500", "100823.485000", "100825.492500", "100827.502500", "100829.510000", "100831.517500", "100833.525000", "100835.532500", "100837.542500", "100839.550000", "100841.557500", "100843.565000", "100845.575000", "100847.582500", "100849.590000", "100851.597500", "100853.605000", "100855.615000", "100857.622500", "100859.630000", "100901.637500", "100903.645000", "100905.655000", "100907.662500", "100909.670000", "100911.677500", "100913.687500", "100915.695000", "100917.702500", "100919.710000", "100921.717500", "100923.727500", "100925.735000", "100927.742500", "100929.750000", "100931.757500", "100933.767500", "100935.775000", "100937.782500", "100939.790000", "100941.800000", "100943.807500", "100945.815000", "100947.822500", "100949.830000", "100951.840000", "100953.847500", "100955.855000", "100957.862500", "100959.870000", "101001.880000", "101003.887500", "101005.895000", "101007.902500", "101009.910000", "101011.920000", "101013.927500", "101015.935000", "101017.942500", "101019.952500", "101021.960000", "101023.967500", "101025.975000", "101027.982500", "101029.992500", "101032.000000", "101034.007500", "101036.015000", "101038.022500", "101040.032500", "101042.040000", "101044.047500", "101046.055000", "101048.065000", "101050.072500", "101052.080000", "101054.087500", "101056.095000", "101058.105000", "101100.112500", "101102.120000", "101104.127500", "101106.135000", "101108.145000", "101110.152500", "101112.160000", "101114.167500", "101116.177500", "101118.185000", "101120.192500", "101122.200000", "101124.207500", "101126.217500", "101128.225000", "101130.232500", "101132.240000", "101134.247500", "101136.257500", "101138.265000", "101140.272500", "101142.280000", "101144.287500", "101146.297500", "101148.305000", "101150.312500", "101152.320000", "101154.330000", "101156.337500", "101158.345000", "101200.352500", "101202.360000", "101204.370000", "101206.377500", "101208.385000", "101210.392500", "101212.400000", "101214.410000", "101216.417500", "101218.425000", "101220.432500", "101222.442500", "101224.450000", "101226.457500", "101228.465000", "101230.472500", "101232.482500", "101234.490000", "101236.497500", "101238.505000", "101240.512500", "101242.522500", "101244.530000", "101246.537500", "101248.545000", "101250.555000", "101252.562500", "101254.570000", "101256.577500", "101258.585000", "101300.595000", "101302.602500", "101304.610000", "101306.617500", "101308.625000", "101310.635000", "101312.642500", "101314.650000", "101316.657500", "101318.665000", "101320.675000", "101322.682500", "101324.690000", "101326.697500", "101328.707500", "101330.715000", "101332.722500", "101334.730000", "101336.737500", "101338.747500", "101340.755000", "101342.762500", "101344.770000", "101346.777500", "101348.787500", "101350.795000", "101352.802500", "101354.810000", "101356.820000", "101358.827500", "101400.835000", "101402.842500", "101404.850000", "101406.860000", "101408.867500", "101410.875000", "101412.882500", "101414.890000", "101416.900000", "101418.907500", "101420.915000", "101422.922500", "101424.932500", "101426.940000", "101428.947500", "101430.955000", "101432.962500", "101434.972500", "101436.980000", "101438.987500", "101440.995000", "101443.002500", "101445.012500", "101447.020000", "101449.027500", "101451.035000", "101453.042500", "101455.052500", "101457.060000"],
      "ContentTime": ["100759.906000", "100801.890000", "100803.890000", "100805.890000", "100807.890000", "100809.890000", "100811.890000", "100813.890000", "100815.890000", "100817.890000", "100819.890000", "100821.890000", "100823.890000", "100825.890000", "100827.890000", "100829.890000", "100831.890000", "100833.890000", "100835.890000", "100837.890000", "100839.890000", "100841.890000", "100843.890000", "100845.890000", "100847.890000", "100849.890000", "100851.890000", "100853.890000", "100855.890000", "100857.890000", "100859.890000", "100901.890000", "100903.890000", "100905.890000", "100907.890000", "100909.890000", "100911.890000", "100913.890000", "100915.890000", "100917.890000", "100919.890000", "100921.890000", "100923.890000", "100925.890000", "100927.890000", "100929.890000", "100931.890000", "100933.890000", "100935.890000", "100937.890000", "100939.890000", "100941.890000", "100943.890000", "100945.890000", "100947.890000", "100949.890000", "100951.890000", "100953.890000", "100955.890000", "100957.890000", "100959.890000", "101001.890000", "101003.890000", "101005.890000", "101007.890000", "101009.890000", "101011.890000", "101013.890000", "101015.890000", "101017.890000", "101019.890000", "101021.890000", "101023.890000", "101025.890000", "101027.890000", "101029.890000", "101031.890000", "101033.890000", "101035.890000", "101037.890000", "101039.890000", "101041.890000", "101043.890000", "101045.890000", "101047.890000", "101049.890000", "101051.890000", "101053.890000", "101055.890000", "101057.890000", "101059.890000", "101101.890000", "101103.890000", "101105.890000", "101107.890000", "101109.890000", "101111.890000", "101113.890000", "101115.890000", "101117.890000", "101119.890000", "101121.890000", "101123.890000", "101125.890000", "101127.890000", "101129.890000", "101131.890000", "101133.890000", "101135.890000", "101137.890000", "101139.890000", "101141.890000", "101143.890000", "101145.890000", "101147.890000", "101149.890000", "101151.890000", "101153.890000", "101155.890000", "101157.890000", "101159.890000", "101201.890000", "101203.890000", "101205.890000", "101207.890000", "101209.890000", "101211.890000", "101213.890000", "101215.890000", "101217.890000", "101219.890000", "101221.890000", "101223.890000", "101225.890000", "101227.890000", "101229.890000", "101231.890000", "101233.890000", "101235.890000", "101237.890000", "101239.890000", "101241.890000", "101243.890000", "101245.890000", "101247.890000", "101249.890000", "101251.890000", "101253.890000", "101255.890000", "101257.890000", "101259.890000", "101301.890000", "101303.890000", "101305.890000", "101307.890000", "101309.890000", "101311.890000", "101313.890000", "101315.890000", "101317.890000", "101319.890000", "101321.890000", "101323.890000", "101325.890000", "101327.890000", "101329.890000", "101331.890000", "101333.890000", "101335.890000", "101337.890000", "101339.890000", "101341.890000", "101343.890000", "101345.890000", "101347.890000", "101349.890000", "101351.890000", "101353.890000", "101355.890000", "101357.890000", "101359.890000", "101401.890000", "101403.890000", "101405.890000", "101407.890000", "101409.890000", "101411.890000", "101413.890000", "101415.890000", "101417.890000", "101419.890000", "101421.890000", "101423.890000", "101425.890000", "101427.890000", "101429.890000", "101431.890000", "101433.890000", "101435.890000", "101437.890000", "101439.890000", "101441.890000", "101443.890000", "101445.890000", "101447.890000", "101449.890000", "101451.890000", "101453.906000", "101455.890000", "101457.640000"],
      "InstanceCreationTime": ["100759.906000", "100801.890000", "100803.890000", "100805.890000", "100807.890000", "100809.890000", "100811.890000", "100813.890000", "100815.890000", "100817.890000", "100819.890000", "100821.890000", "100823.890000", "100825.890000", "100827.890000", "100829.890000", "100831.890000", "100833.890000", "100835.890000", "100837.890000", "100839.890000", "100841.890000", "100843.890000", "100845.890000", "100847.890000", "100849.890000", "100851.890000", "100853.890000", "100855.890000", "100857.890000", "100859.890000", "100901.890000", "100903.890000", "100905.890000", "100907.890000", "100909.890000", "100911.890000", "100913.890000", "100915.890000", "100917.890000", "100919.890000", "100921.890000", "100923.890000", "100925.890000", "100927.890000", "100929.890000", "100931.890000", "100933.890000", "100935.890000", "100937.890000", "100939.890000", "100941.890000", "100943.890000", "100945.890000", "100947.890000", "100949.890000", "100951.890000", "100953.890000", "100955.890000", "100957.890000", "100959.890000", "101001.890000", "101003.890000", "101005.890000", "101007.890000", "101009.890000", "101011.890000", "101013.890000", "101015.890000", "101017.890000", "101019.890000", "101021.890000", "101023.890000", "101025.890000", "101027.890000", "101029.890000", "101031.890000", "101033.890000", "101035.890000", "101037.890000", "101039.890000", "101041.890000", "101043.890000", "101045.890000", "101047.890000", "101049.890000", "101051.890000", "101053.890000", "101055.890000", "101057.890000", "101059.890000", "101101.890000", "101103.890000", "101105.890000", "101107.890000", "101109.890000", "101111.890000", "101113.890000", "101115.890000", "101117.890000", "101119.890000", "101121.890000", "101123.890000", "101125.890000", "101127.890000", "101129.890000", "101131.890000", "101133.890000", "101135.890000", "101137.890000", "101139.890000", "101141.890000", "101143.890000", "101145.890000", "101147.890000", "101149.890000", "101151.890000", "101153.890000", "101155.890000", "101157.890000", "101159.890000", "101201.890000", "101203.890000", "101205.890000", "101207.890000", "101209.890000", "101211.890000", "101213.890000", "101215.890000", "101217.890000", "101219.890000", "101221.890000", "101223.890000", "101225.890000", "101227.890000", "101229.890000", "101231.890000", "101233.890000", "101235.890000", "101237.890000", "101239.890000", "101241.890000", "101243.890000", "101245.890000", "101247.890000", "101249.890000", "101251.890000", "101253.890000", "101255.890000", "101257.890000", "101259.890000", "101301.890000", "101303.890000", "101305.890000", "101307.890000", "101309.890000", "101311.890000", "101313.890000", "101315.890000", "101317.890000", "101319.890000", "101321.890000", "101323.890000", "101325.890000", "101327.890000", "101329.890000", "101331.890000", "101333.890000", "101335.890000", "101337.890000", "101339.890000", "101341.890000", "101343.890000", "101345.890000", "101347.890000", "101349.890000", "101351.890000", "101353.890000", "101355.890000", "101357.890000", "101359.890000", "101401.890000", "101403.890000", "101405.890000", "101407.890000", "101409.890000", "101411.890000", "101413.890000", "101415.890000", "101417.890000", "101419.890000", "101421.890000", "101423.890000", "101425.890000", "101427.890000", "101429.890000", "101431.890000", "101433.890000", "101435.890000", "101437.890000", "101439.890000", "101441.890000", "101443.890000", "101445.890000", "101447.890000", "101449.890000", "101451.890000", "101453.906000", "101455.890000", "101457.640000"],
      "InstanceNumber": [1, 2, 3, 4, 5, 6, 7, 8, 9, 10, 11, 12, 13, 14, 15, 16, 17, 18, 19, 20, 21, 22, 23, 24, 25, 26, 27, 28, 29, 30, 31, 32, 33, 34, 35, 36, 37, 38, 39, 40, 41, 42, 43, 44, 45, 46, 47, 48, 49, 50, 51, 52, 53, 54, 55, 56, 57, 58, 59, 60, 61, 62, 63, 64, 65, 66, 67, 68, 69, 70, 71, 72, 73, 74, 75, 76, 77, 78, 79, 80, 81, 82, 83, 84, 85, 86, 87, 88, 89, 90, 91, 92, 93, 94, 95, 96, 97, 98, 99, 100, 101, 102, 103, 104, 105, 106, 107, 108, 109, 110, 111, 112, 113, 114, 115, 116, 117, 118, 119, 120, 121, 122, 123, 124, 125, 126, 127, 128, 129, 130, 131, 132, 133, 134, 135, 136, 137, 138, 139, 140, 141, 142, 143, 144, 145, 146, 147, 148, 149, 150, 151, 152, 153, 154, 155, 156, 157, 158, 159, 160, 161, 162, 163, 164, 165, 166, 167, 168, 169, 170, 171, 172, 173, 174, 175, 176, 177, 178, 179, 180, 181, 182, 183, 184, 185, 186, 187, 188, 189, 190, 191, 192, 193, 194, 195, 196, 197, 198, 199, 200, 201, 202, 203, 204, 205, 206, 207, 208, 209, 210],
      "LargestImagePixelValue": [1890, 1809, 1758, 1771, 1784, 1807, 1775, 1798, 1792, 1769, 1789, 1804, 1782, 1772, 1781, 1799, 1801, 1766, 1770, 1777, 1754, 1760, 1765, 1793, 1774, 1773, 1763, 1778, 1778, 1764, 1771, 1771, 1782, 1789, 1762, 1789, 1805, 1774, 1775, 1794, 1770, 1782, 1797, 1808, 1792, 1809, 1810, 1764, 1790, 1785, 1794, 1778, 1773, 1799, 1808, 1801, 1812, 1793, 1785, 1774, 1782, 1828, 1777, 1763, 1766, 1780, 1753, 1779, 1757, 1782, 1789, 1791, 1787, 1784, 1792, 1800, 1779, 1788, 1790, 1779, 1783, 1800, 1797, 1776, 1787, 1805, 1775, 1781, 1777, 1810, 1819, 1795, 1813, 1808, 1822, 1810, 1804, 1781, 1781, 1790, 1777, 1768, 1762, 1780, 1752, 1788, 1810, 1812, 1796, 1792, 1818, 1804, 1794, 1796, 1792, 1804, 1792, 1795, 1780, 1813, 1808, 1787, 1823, 1781, 1791, 1792, 1798, 1795, 1774, 1781, 1798, 1804, 1779, 1811, 1788, 1775, 1772, 1783, 1810, 1794, 1775, 1790, 1796, 1810, 1810, 1780, 1794, 1778, 1787, 1799, 1794, 1808, 1805, 1790, 1790, 1792, 1798, 1801, 1812, 1812, 1799, 1798, 1785, 1793, 1784, 1793, 1799, 1796, 1786, 1783, 1787, 1786, 1802, 1786, 1803, 1792, 1815, 1787, 1782, 1804, 1799, 1786, 1810, 1803, 1790, 1760, 1776, 1803, 1776, 1777, 1786, 1784, 1785, 1798, 1801, 1806, 1779, 1792, 1806, 1809, 1809, 1807, 1825, 1812, 1802, 1815, 1831, 1819, 1791, 1795],
      "WindowCenter": [737.0, 732.0, 731.0, 730.0, 730.0, 730.0, 729.0, 730.0, 731.0, 730.0, 730.0, 731.0, 731.0, 730.0, 731.0, 732.0, 732.0, 730.0, 730.0, 732.0, 731.0, 730.0, 730.0, 732.0, 732.0, 732.0, 732.0, 732.0, 730.0, 729.0, 729.0, 730.0, 732.0, 731.0, 730.0, 731.0, 733.0, 732.0, 730.0, 730.0, 731.0, 732.0, 732.0, 731.0, 732.0, 733.0, 734.0, 732.0, 732.0, 732.0, 733.0, 732.0, 732.0, 732.0, 732.0, 733.0, 733.0, 733.0, 732.0, 732.0, 732.0, 732.0, 732.0, 731.0, 731.0, 731.0, 731.0, 731.0, 731.0, 733.0, 733.0, 733.0, 732.0, 731.0, 733.0, 735.0, 734.0, 733.0, 733.0, 733.0, 732.0, 732.0, 732.0, 732.0, 732.0, 733.0, 734.0, 733.0, 733.0, 733.0, 734.0, 734.0, 733.0, 734.0, 735.0, 735.0, 735.0, 734.0, 733.0, 733.0, 733.0, 732.0, 732.0, 732.0, 732.0, 733.0, 735.0, 735.0, 734.0, 733.0, 735.0, 734.0, 734.0, 734.0, 733.0, 734.0, 734.0, 733.0, 733.0, 733.0, 733.0, 735.0, 735.0, 734.0, 734.0, 733.0, 733.0, 733.0, 733.0, 734.0, 735.0, 735.0, 734.0, 735.0, 734.0, 733.0, 733.0, 734.0, 735.0, 734.0, 735.0, 734.0, 734.0, 734.0, 734.0, 734.0, 734.0, 733.0, 733.0, 733.0, 734.0, 736.0, 735.0, 735.0, 736.0, 736.0, 734.0, 734.0, 735.0, 735.0, 734.0, 734.0, 733.0, 733.0, 734.0, 736.0, 737.0, 735.0, 734.0, 734.0, 734.0, 735.0, 736.0, 735.0, 735.0, 735.0, 735.0, 734.0, 734.0, 735.0, 735.0, 735.0, 736.0, 736.0, 736.0, 734.0, 734.0, 735.0, 734.0, 734.0, 734.0, 735.0, 735.0, 734.0, 734.0, 736.0, 735.0, 735.0, 735.0, 735.0, 736.0, 736.0, 736.0, 735.0, 735.0, 734.0, 735.0, 736.0, 736.0, 735.0],
      "WindowWidth": [1559.0, 1547.0, 1544.0, 1542.0, 1541.0, 1540.0, 1540.0, 1542.0, 1543.0, 1540.0, 1541.0, 1545.0, 1544.0, 1542.0, 1543.0, 1547.0, 1545.0, 1542.0, 1542.0, 1546.0, 1544.0, 1540.0, 1542.0, 1547.0, 1545.0, 1546.0, 1547.0, 1545.0, 1541.0, 1539.0, 1539.0, 1542.0, 1546.0, 1544.0, 1541.0, 1544.0, 1548.0, 1546.0, 1542.0, 1542.0, 1544.0, 1547.0, 1547.0, 1544.0, 1546.0, 1550.0, 1550.0, 1545.0, 1546.0, 1546.0, 1548.0, 1545.0, 1546.0, 1547.0, 1547.0, 1550.0, 1549.0, 1548.0, 1547.0, 1547.0, 1547.0, 1546.0, 1545.0, 1544.0, 1545.0, 1543.0, 1543.0, 1543.0, 1544.0, 1549.0, 1550.0, 1548.0, 1546.0, 1543.0, 1548.0, 1554.0, 1551.0, 1550.0, 1550.0, 1548.0, 1547.0, 1547.0, 1547.0, 1547.0, 1547.0, 1550.0, 1550.0, 1550.0, 1548.0, 1548.0, 1551.0, 1550.0, 1549.0, 1551.0, 1554.0, 1554.0, 1553.0, 1551.0, 1550.0, 1549.0, 1549.0, 1547.0, 1546.0, 1545.0, 1545.0, 1549.0, 1554.0, 1554.0, 1550.0, 1550.0, 1553.0, 1552.0, 1552.0, 1551.0, 1549.0, 1551.0, 1550.0, 1550.0, 1549.0, 1550.0, 1550.0, 1553.0, 1554.0, 1551.0, 1550.0, 1549.0, 1549.0, 1549.0, 1549.0, 1552.0, 1553.0, 1552.0, 1550.0, 1553.0, 1552.0, 1549.0, 1549.0, 1550.0, 1552.0, 1552.0, 1552.0, 1552.0, 1550.0, 1551.0, 1550.0, 1552.0, 1551.0, 1549.0, 1549.0, 1548.0, 1552.0, 1556.0, 1553.0, 1553.0, 1556.0, 1555.0, 1551.0, 1550.0, 1554.0, 1553.0, 1551.0, 1551.0, 1550.0, 1550.0, 1551.0, 1555.0, 1558.0, 1555.0, 1551.0, 1550.0, 1552.0, 1553.0, 1555.0, 1553.0, 1552.0, 1552.0, 1553.0, 1551.0, 1552.0, 1553.0, 1553.0, 1553.0, 1556.0, 1557.0, 1556.0, 1551.0, 1552.0, 1554.0, 1552.0, 1550.0, 1550.0, 1554.0, 1553.0, 1552.0, 1552.0, 1555.0, 1554.0, 1554.0, 1554.0, 1555.0, 1555.0, 1557.0, 1555.0, 1554.0, 1553.0, 1552.0, 1554.0, 1555.0, 1555.0, 1554.0]
    },
    "slices": {}
  }
}