{
  "AcquisitionMatrixPE": 64,
  "AcquisitionNumber": 1,
  "AcquisitionTime": "10:00:28.752500",
  "BandwidthPerPixelPhaseEncode": 30.637,
  "BaseResolution": 64,
  "BidsGuess": [
    "func",
    "_acq-epfid2_dir-AP_run-3_bold"
],
  "CoilCombinationMethod": "Sum of Squares",
  "CoilString": "C:HEA;HEP",
  "ConversionSoftware": "dcm2niix",
  "ConversionSoftwareVersion": "v1.0.20240202",
  "DerivedVendorReportedEchoSpacing": 0.000510004,
  "DeviceSerialNumber": "35119",
  "DwellTime": 3.5e-06,
  "EchoTime": 0.03,
  "EffectiveEchoSpacing": 0.000510004,
  "FlipAngle": 78,
  "HeudiconvVersion": "1.1.6",
  "ImageComments": "V",
  "ImageOrientationPatientDICOM": [1, 0, 0, 0, 0.904827, -0.425779],
  "ImageOrientationText": "Tra>Cor(-25.2)",
  "ImageType": [
    "ORIGINAL",
    "PRIMARY",
    "M",
    "ND",
    "MOSAIC"
],
  "ImagingFrequency": 123.251797,
  "InPlanePhaseEncodingDirectionDICOM": "COL",
  "InstitutionAddress": "Chaucer Road  15,Cambridge,UK,GB,CB2 2EF",
  "InstitutionName": "MRC-CBU",
  "MRAcquisitionType": "2D",
  "MagneticFieldStrength": 3,
  "Manufacturer": "Siemens",
  "ManufacturersModelName": "TrioTim",
  "MatrixCoilMode": "SENSE",
  "Modality": "MR",
  "NonlinearGradientCorrection": false,
  "PartialFourier": 1,
  "PatientPosition": "HFS",
  "PercentPhaseFOV": 100,
  "PercentSampling": 100,
  "PhaseEncodingDirection": "j-",
  "PhaseEncodingSteps": 64,
  "PhaseResolution": 1,
  "PixelBandwidth": 2230,
  "ProcedureStepDescription": "CBU^Neuroimaging",
  "ProtocolName": "CBU_DWEPI_BOLD210",
  "PulseSequenceDetails": "%SiemensSeq%\\ep2d_bold",
  "ReceiveCoilName": "HeadMatrix",
  "ReconMatrixPE": 64,
  "RepetitionTime": 2,
  "SAR": 0.134505,
  "ScanOptions": "FS",
  "ScanningSequence": "EP",
  "SequenceName": "*epfid2d1_64",
  "SequenceVariant": "SK",
  "SeriesDescription": "CBU_DWEPI_BOLD210",
  "SeriesNumber": 3,
  "ShimSetting": [-7826, -8756, -2054, 827, 86, 418, -65, 142],
  "SliceThickness": 3,
  "SliceTiming": [0, 1.0325, 0.06, 1.095, 0.12, 1.155, 0.1825, 1.215, 0.2425, 1.2775, 0.3025, 1.3375, 0.365, 1.3975, 0.425, 1.46, 0.485, 1.52, 0.5475, 1.58, 0.6075, 1.6425, 0.6675, 1.7025, 0.73, 1.7625, 0.79, 1.825, 0.85, 1.885, 0.9125, 1.945, 0.9725],
  "SoftwareVersions": "syngo MR B15",
  "SpacingBetweenSlices": 3.75,
  "StationName": "MRC35119",
  "TaskName": "faceprocessing",
  "TotalReadoutTime": 0.0321303,
  "TxRefAmp": 300.239,
  "dcmmeta_affine": [
    [-3.0, 0.0, 0.0, 98.03389739990234],
    [0.0, 2.7144811153411865, -1.596671223640442, -50.36967849731445],
    [0.0, 1.2773369550704956, 3.393101215362549, -80.83121490478516],
    [0.0, 0.0, 0.0, 1.0]
],
  "dcmmeta_reorient_transform": [
    [0.0, -1.0, 0.0, 63.0],
    [1.0, 0.0, 0.0, 0.0],
    [0.0, 0.0, 1.0, 0.0],
    [0.0, 0.0, 0.0, 1.0]
],
  "dcmmeta_shape": [64, 64, 33, 210],
  "dcmmeta_slice_dim": 2,
  "dcmmeta_version": 0.6,
  "global": {
    "const": {
      "AcquisitionMatrix": [64, 0, 0, 64],
      "AngioFlag": "N",
      "BitsAllocated": 16,
      "BitsStored": 12,
      "Columns": 384,
      "EchoNumbers": 1,
      "EchoTime": 30.0,
      "EchoTrainLength": 1,
      "FlipAngle": 78.0,
      "HighBit": 11,
      "ImageOrientationPatient": [1.0, 0.0, 0.0, 0.0, 0.904827, -0.425779],
      "ImagePositionPatient": [-578.033898, -554.959586, 204.014934],
      "ImageType": [
        "ORIGINAL",
        "PRIMARY",
        "M",
        "ND",
        "MOSAIC"
],
      "ImagedNucleus": "1H",
      "ImagingFrequency": 123.251797,
      "InPlanePhaseEncodingDirection": "COL",
      "MRAcquisitionType": "2D",
      "MagneticFieldStrength": 3.0,
      "Manufacturer": "SIEMENS",
      "ManufacturerModelName": "TrioTim",
      "Modality": "MR",
      "NumberOfAverages": 1.0,
      "NumberOfPhaseEncodingSteps": 64,
      "PercentPhaseFieldOfView": 100.0,
      "PercentSampling": 100.0,
      "PerformedProcedureStepStartTime": "095125.984000",
      "PhotometricInterpretation": "MONOCHROME2",
      "PixelAspectRatio": [1, 1],
      "PixelBandwidth": 2230.0,
      "PixelRepresentation": 0,
      "PixelSpacing": [3.0, 3.0],
      "ProtocolName": "CBU_DWEPI_BOLD210",
      "RepetitionTime": 2000.0,
      "Rows": 384,
      "SAR": 0.134505,
      "SamplesPerPixel": 1,
      "ScanOptions": "FS",
      "ScanningSequence": "EP",
      "SequenceName": "*epfid2d1_64",
      "SequenceVariant": "SK",
      "SeriesDescription": "CBU_DWEPI_BOLD210",
      "SeriesNumber": 3,
      "SeriesTime": "100031.437000",
      "SliceLocation": -51.692062,
      "SliceThickness": 3.0,
      "SmallestImagePixelValue": 0,
      "SoftwareVersions": "syngo MR B15",
      "SpacingBetweenSlices": 3.75,
      "SpecificCharacterSet": "ISO_IR 100",
      "StudyID": "1",
      "StudyTime": "095125.921000",
      "TransmitCoilName": "Body",
      "VariableFlipAngleFlag": "N",
      "WindowCenterWidthExplanation": "Algo1",
      "dBdt": 0.0},
    "slices": {}
  },
  "time": {
    "samples": {
      "AcquisitionNumber": [1, 2, 3, 4, 5, 6, 7, 8, 9, 10, 11, 12, 13, 14, 15, 16, 17, 18, 19, 20, 21, 22, 23, 24, 25, 26, 27, 28, 29, 30, 31, 32, 33, 34, 35, 36, 37, 38, 39, 40, 41, 42, 43, 44, 45, 46, 47, 48, 49, 50, 51, 52, 53, 54, 55, 56, 57, 58, 59, 60, 61, 62, 63, 64, 65, 66, 67, 68, 69, 70, 71, 72, 73, 74, 75, 76, 77, 78, 79, 80, 81, 82, 83, 84, 85, 86, 87, 88, 89, 90, 91, 92, 93, 94, 95, 96, 97, 98, 99, 100, 101, 102, 103, 104, 105, 106, 107, 108, 109, 110, 111, 112, 113, 114, 115, 116, 117, 118, 119, 120, 121, 122, 123, 124, 125, 126, 127, 128, 129, 130, 131, 132, 133, 134, 135, 136, 137, 138, 139, 140, 141, 142, 143, 144, 145, 146, 147, 148, 149, 150, 151, 152, 153, 154, 155, 156, 157, 158, 159, 160, 161, 162, 163, 164, 165, 166, 167, 168, 169, 170, 171, 172, 173, 174, 175, 176, 177, 178, 179, 180, 181, 182, 183, 184, 185, 186, 187, 188, 189, 190, 191, 192, 193, 194, 195, 196, 197, 198, 199, 200, 201, 202, 203, 204, 205, 206, 207, 208, 209, 210],
      "AcquisitionTime": ["100028.752500", "100030.760000", "100032.767500", "100034.775000", "100036.782500", "100038.792500", "100040.800000", "100042.807500", "100044.815000", "100046.825000", "100048.832500", "100050.840000", "100052.847500", "100054.855000", "100056.865000", "100058.872500", "100100.880000", "100102.887500", "100104.895000", "100106.905000", "100108.912500", "100110.920000", "100112.927500", "100114.937500", "100116.945000", "100118.952500", "100120.960000", "100122.967500", "100124.977500", "100126.985000", "100128.992500", "100131.000000", "100133.007500", "100135.017500", "100137.025000", "100139.032500", "100141.040000", "100143.047500", "100145.057500", "100147.065000", "100149.072500", "100151.080000", "100153.090000", "100155.097500", "100157.105000", "100159.112500", "100201.120000", "100203.130000", "100205.137500", "100207.145000", "100209.152500", "100211.160000", "100213.170000", "100215.177500", "100217.185000", "100219.192500", "100221.202500", "100223.210000", "100225.217500", "100227.225000", "100229.232500", "100231.242500", "100233.250000", "100235.257500", "100237.265000", "100239.272500", "100241.282500", "100243.290000", "100245.297500", "100247.305000", "100249.315000", "100251.322500", "100253.330000", "100255.337500", "100257.345000", "100259.355000", "100301.362500", "100303.370000", "100305.377500", "100307.385000", "100309.395000", "100311.402500", "100313.410000", "100315.417500", "100317.425000", "100319.435000", "100321.442500", "100323.450000", "100325.457500", "100327.467500", "100329.475000", "100331.482500", "100333.490000", "100335.497500", "100337.507500", "100339.515000", "100341.522500", "100343.530000", "100345.537500", "100347.547500", "100349.555000", "100351.562500", "100353.570000", "100355.580000", "100357.587500", "100359.595000", "100401.602500", "100403.610000", "100405.620000", "100407.627500", "100409.635000", "100411.642500", "100413.650000", "100415.660000", "100417.667500", "100419.675000", "100421.682500", "100423.692500", "100425.700000", "100427.707500", "100429.715000", "100431.722500", "100433.732500", "100435.740000", "100437.747500", "100439.755000", "100441.762500", "100443.772500", "100445.780000", "100447.787500", "100449.795000", "100451.805000", "100453.812500", "100455.820000", "100457.827500", "100459.835000", "100501.845000", "100503.852500", "100505.860000", "100507.867500", "100509.875000", "100511.885000", "100513.892500", "100515.900000", "100517.907500", "100519.915000", "100521.925000", "100523.932500", "100525.940000", "100527.947500", "100529.957500", "100531.965000", "100533.972500", "100535.980000", "100537.987500", "100539.997500", "100542.005000", "100544.012500", "100546.020000", "100548.027500", "100550.037500", "100552.045000", "100554.052500", "100556.060000", "100558.070000", "100600.077500", "100602.085000", "100604.092500", "100606.100000", "100608.110000", "100610.117500", "100612.125000", "100614.132500", "100616.140000", "100618.150000", "100620.157500", "100622.165000", "100624.172500", "100626.182500", "100628.190000", "100630.197500", "100632.205000", "100634.212500", "100636.222500", "100638.230000", "100640.237500", "100642.245000", "100644.252500", "100646.262500", "100648.270000", "100650.277500", "100652.285000", "100654.292500", "100656.302500", "100658.310000", "100700.317500", "100702.325000", "100704.335000", "100706.342500", "100708.350000", "100710.357500", "100712.365000", "100714.375000", "100716.382500", "100718.390000", "100720.397500", "100722.405000", "100724.415000", "100726.422500", "100728.430000"],
      "ContentTime": ["100031.437000", "100032.921000", "100034.921000", "100036.921000", "100038.921000", "100040.921000", "100043.421000", "100044.921000", "100047.421000", "100048.921000", "100051.421000", "100052.921000", "100054.921000", "100057.421000", "100058.921000", "100100.921000", "100102.921000", "100104.921000", "100106.921000", "100108.921000", "100110.921000", "100112.921000", "100115.421000", "100116.921000", "100118.921000", "100120.921000", "100123.421000", "100124.921000", "100126.921000", "100128.921000", "100130.921000", "100132.921000", "100134.921000", "100136.921000", "100138.921000", "100141.421000", "100142.921000", "100144.921000", "100147.421000", "100148.921000", "100150.921000", "100152.921000", "100155.421000", "100156.921000", "100158.921000", "100200.921000", "100202.921000", "100204.921000", "100206.921000", "100208.921000", "100210.921000", "100212.921000", "100214.921000", "100216.921000", "100218.921000", "100220.921000", "100223.421000", "100224.921000", "100227.421000", "100228.921000", "100230.921000", "100232.921000", "100234.921000", "100236.921000", "100238.921000", "100240.921000", "100242.921000", "100244.921000", "100246.921000", "100248.921000", "100251.421000", "100252.921000", "100254.921000", "100256.921000", "100259.421000", "100300.921000", "100302.921000", "100304.921000", "100306.921000", "100308.921000", "100310.921000", "100312.921000", "100314.921000", "100316.921000", "100318.921000", "100320.921000", "100323.421000", "100324.921000", "100326.921000", "100328.921000", "100330.921000", "100332.921000", "100334.921000", "100336.921000", "100338.921000", "100340.921000", "100342.921000", "100344.921000", "100347.421000", "100348.921000", "100350.921000", "100352.921000", "100354.921000", "100356.921000", "100358.921000", "100400.921000", "100402.921000", "100404.921000", "100406.921000", "100408.921000", "100410.921000", "100412.921000", "100414.921000", "100416.921000", "100418.921000", "100420.921000", "100422.921000", "100424.921000", "100426.921000", "100428.921000", "100430.921000", "100432.921000", "100434.921000", "100436.921000", "100438.921000", "100440.921000", "100442.921000", "100444.921000", "100446.921000", "100448.921000", "100450.921000", "100452.921000", "100454.921000", "100456.921000", "100458.921000", "100500.921000", "100502.921000", "100504.921000", "100507.421000", "100508.921000", "100510.921000", "100512.921000", "100514.921000", "100516.921000", "100518.921000", "100520.921000", "100522.921000", "100524.921000", "100526.921000", "100528.921000", "100530.921000", "100532.921000", "100534.921000", "100536.921000", "100538.921000", "100540.921000", "100542.921000", "100544.921000", "100546.921000", "100548.921000", "100550.921000", "100552.921000", "100554.921000", "100556.921000", "100558.921000", "100600.921000", "100603.421000", "100604.921000", "100607.421000", "100608.921000", "100611.421000", "100612.921000", "100614.921000", "100616.921000", "100618.921000", "100620.921000", "100622.921000", "100624.921000", "100627.421000", "100628.921000", "100630.921000", "100632.921000", "100634.921000", "100636.921000", "100638.921000", "100640.921000", "100642.921000", "100644.921000", "100646.921000", "100648.921000", "100650.921000", "100652.921000", "100654.921000", "100656.921000", "100658.921000", "100700.921000", "100702.921000", "100704.921000", "100706.921000", "100708.921000", "100710.921000", "100712.921000", "100714.921000", "100716.921000", "100719.421000", "100720.921000", "100722.921000", "100724.921000", "100726.921000", "100728.875000"],
      "InstanceCreationTime": ["100031.437000", "100032.921000", "100034.921000", "100036.921000", "100038.921000", "100040.921000", "100043.421000", "100044.921000", "100047.421000", "100048.921000", "100051.421000", "100052.921000", "100054.921000", "100057.421000", "100058.921000", "100100.921000", "100102.921000", "100104.921000", "100106.921000", "100108.921000", "100110.921000", "100112.921000", "100115.421000", "100116.921000", "100118.921000", "100120.921000", "100123.421000", "100124.921000", "100126.921000", "100128.921000", "100130.921000", "100132.921000", "100134.921000", "100136.921000", "100138.921000", "100141.421000", "100142.921000", "100144.921000", "100147.421000", "100148.921000", "100150.921000", "100152.921000", "100155.421000", "100156.921000", "100158.921000", "100200.921000", "100202.921000", "100204.921000", "100206.921000", "100208.921000", "100210.921000", "100212.921000", "100214.921000", "100216.921000", "100218.921000", "100220.921000", "100223.421000", "100224.921000", "100227.421000", "100228.921000", "100230.921000", "100232.921000", "100234.921000", "100236.921000", "100238.921000", "100240.921000", "100242.921000", "100244.921000", "100246.921000", "100248.921000", "100251.421000", "100252.921000", "100254.921000", "100256.921000", "100259.421000", "100300.921000", "100302.921000", "100304.921000", "100306.921000", "100308.921000", "100310.921000", "100312.921000", "100314.921000", "100316.921000", "100318.921000", "100320.921000", "100323.421000", "100324.921000", "100326.921000", "100328.921000", "100330.921000", "100332.921000", "100334.921000", "100336.921000", "100338.921000", "100340.921000", "100342.921000", "100344.921000", "100347.421000", "100348.921000", "100350.921000", "100352.921000", "100354.921000", "100356.921000", "100358.921000", "100400.921000", "100402.921000", "100404.921000", "100406.921000", "100408.921000", "100410.921000", "100412.921000", "100414.921000", "100416.921000", "100418.921000", "100420.921000", "100422.921000", "100424.921000", "100426.921000", "100428.921000", "100430.921000", "100432.921000", "100434.921000", "100436.921000", "100438.921000", "100440.921000", "100442.921000", "100444.921000", "100446.921000", "100448.921000", "100450.921000", "100452.921000", "100454.921000", "100456.921000", "100458.921000", "100500.921000", "100502.921000", "100504.921000", "100507.421000", "100508.921000", "100510.921000", "100512.921000", "100514.921000", "100516.921000", "100518.921000", "100520.921000", "100522.921000", "100524.921000", "100526.921000", "100528.921000", "100530.921000", "100532.921000", "100534.921000", "100536.921000", "100538.921000", "100540.921000", "100542.921000", "100544.921000", "100546.921000", "100548.921000", "100550.921000", "100552.921000", "100554.921000", "100556.921000", "100558.921000", "100600.921000", "100603.421000", "100604.921000", "100607.421000", "100608.921000", "100611.421000", "100612.921000", "100614.921000", "100616.921000", "100618.921000", "100620.921000", "100622.921000", "100624.921000", "100627.421000", "100628.921000", "100630.921000", "100632.921000", "100634.921000", "100636.921000", "100638.921000", "100640.921000", "100642.921000", "100644.921000", "100646.921000", "100648.921000", "100650.921000", "100652.921000", "100654.921000", "100656.921000", "100658.921000", "100700.921000", "100702.921000", "100704.921000", "100706.921000", "100708.921000", "100710.921000", "100712.921000", "100714.921000", "100716.921000", "100719.421000", "100720.921000", "100722.921000", "100724.921000", "100726.921000", "100728.875000"],
      "InstanceNumber": [1, 2, 3, 4, 5, 6, 7, 8, 9, 10, 11, 12, 13, 14, 15, 16, 17, 18, 19, 20, 21, 22, 23, 24, 25, 26, 27, 28, 29, 30, 31, 32, 33, 34, 35, 36, 37, 38, 39, 40, 41, 42, 43, 44, 45, 46, 47, 48, 49, 50, 51, 52, 53, 54, 55, 56, 57, 58, 59, 60, 61, 62, 63, 64, 65, 66, 67, 68, 69, 70, 71, 72, 73, 74, 75, 76, 77, 78, 79, 80, 81, 82, 83, 84, 85, 86, 87, 88, 89, 90, 91, 92, 93, 94, 95, 96, 97, 98, 99, 100, 101, 102, 103, 104, 105, 106, 107, 108, 109, 110, 111, 112, 113, 114, 115, 116, 117, 118, 119, 120, 121, 122, 123, 124, 125, 126, 127, 128, 129, 130, 131, 132, 133, 134, 135, 136, 137, 138, 139, 140, 141, 142, 143, 144, 145, 146, 147, 148, 149, 150, 151, 152, 153, 154, 155, 156, 157, 158, 159, 160, 161, 162, 163, 164, 165, 166, 167, 168, 169, 170, 171, 172, 173, 174, 175, 176, 177, 178, 179, 180, 181, 182, 183, 184, 185, 186, 187, 188, 189, 190, 191, 192, 193, 194, 195, 196, 197, 198, 199, 200, 201, 202, 203, 204, 205, 206, 207, 208, 209, 210],
      "LargestImagePixelValue": [1817, 1769, 1764, 1784, 1775, 1748, 1711, 1734, 1730, 1729, 1742, 1751, 1744, 1733, 1727, 1732, 1740, 1732, 1744, 1737, 1730, 1735, 1736, 1739, 1709, 1706, 1742, 1735, 1736, 1724, 1729, 1734, 1732, 1729, 1741, 1749, 1746, 1753, 1752, 1750, 1728, 1717, 1747, 1749, 1754, 1741, 1756, 1758, 1768, 1759, 1752, 1742, 1769, 1751, 1750, 1750, 1755, 1740, 1759, 1728, 1733, 1743, 1760, 1750, 1718, 1716, 1728, 1732, 1719, 1723, 1745, 1752, 1732, 1764, 1744, 1717, 1750, 1745, 1758, 1767, 1769, 1759, 1744, 1751, 1751, 1744, 1757, 1763, 1750, 1752, 1777, 1768, 1762, 1734, 1753, 1764, 1789, 1769, 1771, 1756, 1742, 1727, 1730, 1760, 1760, 1757, 1779, 1757, 1750, 1759, 1752, 1750, 1749, 1766, 1764, 1776, 1765, 1767, 1770, 1751, 1759, 1776, 1762, 1765, 1773, 1756, 1748, 1767, 1754, 1765, 1769, 1764, 1753, 1752, 1762, 1773, 1761, 1772, 1770, 1782, 1784, 1762, 1775, 1737, 1751, 1760, 1771, 1752, 1775, 1797, 1793, 1783, 1770, 1777, 1781, 1800, 1797, 1789, 1797, 1765, 1766, 1756, 1777, 1762, 1771, 1788, 1776, 1768, 1791, 1786, 1811, 1805, 1768, 1771, 1763, 1793, 1783, 1798, 1779, 1778, 1767, 1767, 1797, 1786, 1773, 1769, 1784, 1799, 1791, 1785, 1797, 1801, 1790, 1796, 1779, 1786, 1774, 1794, 1789, 1785, 1779, 1792, 1777, 1773, 1777, 1785, 1798, 1810, 1780, 1794],
      "WindowCenter": [732.0, 728.0, 728.0, 728.0, 728.0, 727.0, 727.0, 728.0, 726.0, 726.0, 726.0, 727.0, 727.0, 728.0, 728.0, 727.0, 726.0, 728.0, 729.0, 729.0, 728.0, 728.0, 727.0, 726.0, 726.0, 727.0, 729.0, 729.0, 729.0, 728.0, 727.0, 727.0, 727.0, 727.0, 729.0, 729.0, 729.0, 729.0, 729.0, 729.0, 729.0, 729.0, 729.0, 729.0, 730.0, 730.0, 730.0, 729.0, 729.0, 729.0, 729.0, 729.0, 730.0, 730.0, 731.0, 731.0, 730.0, 728.0, 729.0, 729.0, 730.0, 730.0, 729.0, 728.0, 728.0, 728.0, 730.0, 730.0, 729.0, 728.0, 729.0, 729.0, 730.0, 731.0, 730.0, 729.0, 730.0, 730.0, 730.0, 731.0, 730.0, 729.0, 728.0, 729.0, 730.0, 729.0, 730.0, 730.0, 730.0, 731.0, 731.0, 731.0, 731.0, 729.0, 730.0, 732.0, 732.0, 731.0, 731.0, 731.0, 730.0, 731.0, 730.0, 730.0, 730.0, 730.0, 730.0, 730.0, 730.0, 730.0, 730.0, 730.0, 730.0, 731.0, 731.0, 732.0, 733.0, 732.0, 731.0, 730.0, 732.0, 732.0, 730.0, 731.0, 732.0, 731.0, 730.0, 730.0, 731.0, 732.0, 731.0, 731.0, 732.0, 732.0, 731.0, 731.0, 732.0, 732.0, 732.0, 732.0, 731.0, 732.0, 732.0, 732.0, 731.0, 731.0, 731.0, 730.0, 732.0, 733.0, 732.0, 730.0, 730.0, 730.0, 731.0, 732.0, 732.0, 732.0, 733.0, 732.0, 732.0, 731.0, 731.0, 731.0, 731.0, 731.0, 732.0, 733.0, 733.0, 732.0, 733.0, 733.0, 732.0, 732.0, 731.0, 732.0, 733.0, 733.0, 733.0, 733.0, 732.0, 731.0, 731.0, 733.0, 734.0, 733.0, 733.0, 733.0, 733.0, 733.0, 734.0, 734.0, 733.0, 733.0, 733.0, 732.0, 732.0, 733.0, 732.0, 733.0, 733.0, 734.0, 733.0, 733.0, 733.0, 733.0, 733.0, 734.0, 735.0, 734.0],
      "WindowWidth": [1547.0, 1537.0, 1536.0, 1536.0, 1536.0, 1535.0, 1534.0, 1535.0, 1533.0, 1532.0, 1533.0, 1534.0, 1536.0, 1537.0, 1536.0, 1533.0, 1533.0, 1538.0, 1540.0, 1539.0, 1537.0, 1536.0, 1534.0, 1532.0, 1531.0, 1533.0, 1539.0, 1538.0, 1538.0, 1536.0, 1534.0, 1534.0, 1534.0, 1534.0, 1538.0, 1539.0, 1538.0, 1539.0, 1540.0, 1539.0, 1539.0, 1540.0, 1540.0, 1539.0, 1541.0, 1543.0, 1541.0, 1539.0, 1539.0, 1539.0, 1539.0, 1539.0, 1541.0, 1541.0, 1544.0, 1543.0, 1540.0, 1537.0, 1538.0, 1538.0, 1541.0, 1540.0, 1539.0, 1536.0, 1536.0, 1536.0, 1541.0, 1541.0, 1538.0, 1536.0, 1538.0, 1539.0, 1541.0, 1544.0, 1540.0, 1540.0, 1542.0, 1542.0, 1541.0, 1544.0, 1543.0, 1540.0, 1537.0, 1539.0, 1540.0, 1540.0, 1542.0, 1541.0, 1541.0, 1543.0, 1544.0, 1545.0, 1544.0, 1538.0, 1540.0, 1546.0, 1547.0, 1544.0, 1543.0, 1543.0, 1542.0, 1543.0, 1542.0, 1541.0, 1542.0, 1541.0, 1541.0, 1541.0, 1541.0, 1541.0, 1541.0, 1541.0, 1542.0, 1544.0, 1543.0, 1546.0, 1549.0, 1547.0, 1544.0, 1542.0, 1546.0, 1546.0, 1541.0, 1543.0, 1547.0, 1544.0, 1542.0, 1542.0, 1545.0, 1546.0, 1543.0, 1544.0, 1546.0, 1545.0, 1545.0, 1545.0, 1545.0, 1545.0, 1546.0, 1545.0, 1544.0, 1546.0, 1547.0, 1545.0, 1545.0, 1544.0, 1544.0, 1541.0, 1546.0, 1548.0, 1546.0, 1542.0, 1541.0, 1542.0, 1544.0, 1546.0, 1546.0, 1545.0, 1548.0, 1547.0, 1545.0, 1544.0, 1544.0, 1543.0, 1543.0, 1544.0, 1546.0, 1548.0, 1547.0, 1546.0, 1547.0, 1549.0, 1547.0, 1547.0, 1544.0, 1546.0, 1547.0, 1548.0, 1549.0, 1548.0, 1546.0, 1543.0, 1544.0, 1548.0, 1550.0, 1549.0, 1549.0, 1548.0, 1547.0, 1549.0, 1551.0, 1550.0, 1549.0, 1548.0, 1547.0, 1546.0, 1547.0, 1547.0, 1547.0, 1548.0, 1549.0, 1550.0, 1550.0, 1549.0, 1548.0, 1548.0, 1549.0, 1552.0, 1552.0, 1552.0]
    },
    "slices": {}
  }
}