{
  "AcquisitionMatrixPE": 64,
  "AcquisitionNumber": 1,
  "AcquisitionTime": "10:53:54.210000",
  "BandwidthPerPixelPhaseEncode": 30.637,
  "BaseResolution": 64,
  "BidsGuess": [
    "func",
    "_acq-epfid2_dir-AP_run-10_bold"
],
  "CoilCombinationMethod": "Sum of Squares",
  "CoilString": "C:HEA;HEP",
  "ConversionSoftware": "dcm2niix",
  "ConversionSoftwareVersion": "v1.0.20240202",
  "DerivedVendorReportedEchoSpacing": 0.000510004,
  "DeviceSerialNumber": "35119",
  "DwellTime": 3.5e-06,
  "EchoTime": 0.03,
  "EffectiveEchoSpacing": 0.000510004,
  "FlipAngle": 78,
  "HeudiconvVersion": "1.1.6",
  "ImageComments": "V",
  "ImageOrientationPatientDICOM": [1, 0, 0, 0, 0.904827, -0.425779],
  "ImageOrientationText": "Tra>Cor(-25.2)",
  "ImageType": [
    "ORIGINAL",
    "PRIMARY",
    "M",
    "ND",
    "MOSAIC"
],
  "ImagingFrequency": 123.251802,
  "InPlanePhaseEncodingDirectionDICOM": "COL",
  "InstitutionAddress": "Chaucer Road  15,Cambridge,UK,GB,CB2 2EF",
  "InstitutionName": "MRC-CBU",
  "MRAcquisitionType": "2D",
  "MagneticFieldStrength": 3,
  "Manufacturer": "Siemens",
  "ManufacturersModelName": "TrioTim",
  "MatrixCoilMode": "SENSE",
  "Modality": "MR",
  "NonlinearGradientCorrection": false,
  "PartialFourier": 1,
  "PatientPosition": "HFS",
  "PercentPhaseFOV": 100,
  "PercentSampling": 100,
  "PhaseEncodingDirection": "j-",
  "PhaseEncodingSteps": 64,
  "PhaseResolution": 1,
  "PixelBandwidth": 2230,
  "ProcedureStepDescription": "CBU^Neuroimaging",
  "ProtocolName": "CBU_DWEPI_BOLD210",
  "PulseSequenceDetails": "%SiemensSeq%\\ep2d_bold",
  "ReceiveCoilName": "HeadMatrix",
  "ReconMatrixPE": 64,
  "RepetitionTime": 2,
  "SAR": 0.134505,
  "ScanOptions": "FS",
  "ScanningSequence": "EP",
  "SequenceName": "*epfid2d1_64",
  "SequenceVariant": "SK",
  "SeriesDescription": "CBU_DWEPI_BOLD210",
  "SeriesNumber": 10,
  "ShimSetting": [-7826, -8756, -2054, 827, 86, 418, -65, 142],
  "SliceThickness": 3,
  "SliceTiming": [0, 1.035, 0.0625, 1.095, 0.1225, 1.1575, 0.1825, 1.2175, 0.245, 1.2775, 0.305, 1.34, 0.365, 1.4, 0.4275, 1.46, 0.4875, 1.5225, 0.5475, 1.5825, 0.61, 1.6425, 0.67, 1.705, 0.73, 1.765, 0.7925, 1.825, 0.8525, 1.8875, 0.9125, 1.9475, 0.975],
  "SoftwareVersions": "syngo MR B15",
  "SpacingBetweenSlices": 3.75,
  "StationName": "MRC35119",
  "TaskName": "faceprocessing",
  "TotalReadoutTime": 0.0321303,
  "TxRefAmp": 300.239,
  "dcmmeta_affine": [
    [-3.0, 0.0, 0.0, 98.03389739990234],
    [0.0, 2.7144811153411865, -1.596671223640442, -50.36967849731445],
    [0.0, 1.2773369550704956, 3.393101215362549, -80.83121490478516],
    [0.0, 0.0, 0.0, 1.0]
],
  "dcmmeta_reorient_transform": [
    [0.0, -1.0, 0.0, 63.0],
    [1.0, 0.0, 0.0, 0.0],
    [0.0, 0.0, 1.0, 0.0],
    [0.0, 0.0, 0.0, 1.0]
],
  "dcmmeta_shape": [64, 64, 33, 210],
  "dcmmeta_slice_dim": 2,
  "dcmmeta_version": 0.6,
  "global": {
    "const": {
      "AcquisitionMatrix": [64, 0, 0, 64],
      "AngioFlag": "N",
      "BitsAllocated": 16,
      "BitsStored": 12,
      "Columns": 384,
      "EchoNumbers": 1,
      "EchoTime": 30.0,
      "EchoTrainLength": 1,
      "FlipAngle": 78.0,
      "HighBit": 11,
      "ImageOrientationPatient": [1.0, 0.0, 0.0, 0.0, 0.904827, -0.425779],
      "ImagePositionPatient": [-578.033898, -554.959586, 204.014934],
      "ImageType": [
        "ORIGINAL",
        "PRIMARY",
        "M",
        "ND",
        "MOSAIC"
],
      "ImagedNucleus": "1H",
      "ImagingFrequency": 123.251802,
      "InPlanePhaseEncodingDirection": "COL",
      "MRAcquisitionType": "2D",
      "MagneticFieldStrength": 3.0,
      "Manufacturer": "SIEMENS",
      "ManufacturerModelName": "TrioTim",
      "Modality": "MR",
      "NumberOfAverages": 1.0,
      "NumberOfPhaseEncodingSteps": 64,
      "PercentPhaseFieldOfView": 100.0,
      "PercentSampling": 100.0,
      "PerformedProcedureStepStartTime": "095125.984000",
      "PhotometricInterpretation": "MONOCHROME2",
      "PixelAspectRatio": [1, 1],
      "PixelBandwidth": 2230.0,
      "PixelRepresentation": 0,
      "PixelSpacing": [3.0, 3.0],
      "ProtocolName": "CBU_DWEPI_BOLD210",
      "RepetitionTime": 2000.0,
      "Rows": 384,
      "SAR": 0.134505,
      "SamplesPerPixel": 1,
      "ScanOptions": "FS",
      "ScanningSequence": "EP",
      "SequenceName": "*epfid2d1_64",
      "SequenceVariant": "SK",
      "SeriesDescription": "CBU_DWEPI_BOLD210",
      "SeriesNumber": 10,
      "SeriesTime": "105356.468000",
      "SliceLocation": -51.692062,
      "SliceThickness": 3.0,
      "SmallestImagePixelValue": 0,
      "SoftwareVersions": "syngo MR B15",
      "SpacingBetweenSlices": 3.75,
      "SpecificCharacterSet": "ISO_IR 100",
      "StudyID": "1",
      "StudyTime": "095125.921000",
      "TransmitCoilName": "Body",
      "VariableFlipAngleFlag": "N",
      "WindowCenterWidthExplanation": "Algo1",
      "dBdt": 0.0},
    "slices": {}
  },
  "time": {
    "samples": {
      "AcquisitionNumber": [1, 2, 3, 4, 5, 6, 7, 8, 9, 10, 11, 12, 13, 14, 15, 16, 17, 18, 19, 20, 21, 22, 23, 24, 25, 26, 27, 28, 29, 30, 31, 32, 33, 34, 35, 36, 37, 38, 39, 40, 41, 42, 43, 44, 45, 46, 47, 48, 49, 50, 51, 52, 53, 54, 55, 56, 57, 58, 59, 60, 61, 62, 63, 64, 65, 66, 67, 68, 69, 70, 71, 72, 73, 74, 75, 76, 77, 78, 79, 80, 81, 82, 83, 84, 85, 86, 87, 88, 89, 90, 91, 92, 93, 94, 95, 96, 97, 98, 99, 100, 101, 102, 103, 104, 105, 106, 107, 108, 109, 110, 111, 112, 113, 114, 115, 116, 117, 118, 119, 120, 121, 122, 123, 124, 125, 126, 127, 128, 129, 130, 131, 132, 133, 134, 135, 136, 137, 138, 139, 140, 141, 142, 143, 144, 145, 146, 147, 148, 149, 150, 151, 152, 153, 154, 155, 156, 157, 158, 159, 160, 161, 162, 163, 164, 165, 166, 167, 168, 169, 170, 171, 172, 173, 174, 175, 176, 177, 178, 179, 180, 181, 182, 183, 184, 185, 186, 187, 188, 189, 190, 191, 192, 193, 194, 195, 196, 197, 198, 199, 200, 201, 202, 203, 204, 205, 206, 207, 208, 209, 210],
      "AcquisitionTime": ["105354.210000", "105356.217500", "105358.227500", "105400.235000", "105402.242500", "105404.250000", "105406.260000", "105408.267500", "105410.275000", "105412.282500", "105414.290000", "105416.300000", "105418.307500", "105420.315000", "105422.322500", "105424.330000", "105426.340000", "105428.347500", "105430.355000", "105432.362500", "105434.372500", "105436.380000", "105438.387500", "105440.395000", "105442.402500", "105444.412500", "105446.420000", "105448.427500", "105450.435000", "105452.442500", "105454.452500", "105456.460000", "105458.467500", "105500.475000", "105502.485000", "105504.492500", "105506.500000", "105508.507500", "105510.515000", "105512.525000", "105514.532500", "105516.540000", "105518.547500", "105520.555000", "105522.565000", "105524.572500", "105526.580000", "105528.587500", "105530.595000", "105532.605000", "105534.612500", "105536.620000", "105538.627500", "105540.637500", "105542.645000", "105544.652500", "105546.660000", "105548.667500", "105550.677500", "105552.685000", "105554.692500", "105556.700000", "105558.707500", "105600.717500", "105602.725000", "105604.732500", "105606.740000", "105608.750000", "105610.757500", "105612.765000", "105614.772500", "105616.780000", "105618.790000", "105620.797500", "105622.805000", "105624.812500", "105626.820000", "105628.830000", "105630.837500", "105632.845000", "105634.852500", "105636.862500", "105638.870000", "105640.877500", "105642.885000", "105644.892500", "105646.902500", "105648.910000", "105650.917500", "105652.925000", "105654.932500", "105656.942500", "105658.950000", "105700.957500", "105702.965000", "105704.972500", "105706.982500", "105708.990000", "105710.997500", "105713.005000", "105715.015000", "105717.022500", "105719.030000", "105721.037500", "105723.045000", "105725.055000", "105727.062500", "105729.070000", "105731.077500", "105733.085000", "105735.095000", "105737.102500", "105739.110000", "105741.117500", "105743.127500", "105745.135000", "105747.142500", "105749.150000", "105751.157500", "105753.167500", "105755.175000", "105757.182500", "105759.190000", "105801.197500", "105803.207500", "105805.215000", "105807.222500", "105809.230000", "105811.240000", "105813.247500", "105815.255000", "105817.262500", "105819.270000", "105821.280000", "105823.287500", "105825.295000", "105827.302500", "105829.310000", "105831.320000", "105833.327500", "105835.335000", "105837.342500", "105839.350000", "105841.360000", "105843.367500", "105845.375000", "105847.382500", "105849.392500", "105851.400000", "105853.407500", "105855.415000", "105857.422500", "105859.432500", "105901.440000", "105903.447500", "105905.455000", "105907.462500", "105909.472500", "105911.480000", "105913.487500", "105915.495000", "105917.505000", "105919.512500", "105921.520000", "105923.527500", "105925.535000", "105927.545000", "105929.552500", "105931.560000", "105933.567500", "105935.575000", "105937.585000", "105939.592500", "105941.600000", "105943.607500", "105945.617500", "105947.625000", "105949.632500", "105951.640000", "105953.647500", "105955.657500", "105957.665000", "105959.672500", "110001.680000", "110003.687500", "110005.697500", "110007.705000", "110009.712500", "110011.720000", "110013.727500", "110015.737500", "110017.745000", "110019.752500", "110021.760000", "110023.770000", "110025.777500", "110027.785000", "110029.792500", "110031.800000", "110033.810000", "110035.817500", "110037.825000", "110039.832500", "110041.840000", "110043.850000", "110045.857500", "110047.865000", "110049.872500", "110051.882500", "110053.890000"],
      "ContentTime": ["105356.468000", "105358.468000", "105400.468000", "105402.468000", "105404.468000", "105406.468000", "105408.468000", "105410.468000", "105412.468000", "105414.468000", "105416.468000", "105418.468000", "105420.468000", "105422.468000", "105424.468000", "105426.468000", "105428.468000", "105430.468000", "105432.468000", "105434.468000", "105436.468000", "105438.468000", "105440.468000", "105442.468000", "105444.468000", "105446.468000", "105448.468000", "105450.468000", "105452.468000", "105454.468000", "105456.468000", "105458.468000", "105500.468000", "105502.468000", "105504.468000", "105506.468000", "105508.468000", "105510.468000", "105512.468000", "105514.468000", "105516.468000", "105518.468000", "105520.468000", "105522.468000", "105524.468000", "105526.468000", "105528.468000", "105530.468000", "105532.468000", "105534.468000", "105536.468000", "105538.468000", "105540.468000", "105542.468000", "105544.468000", "105546.468000", "105548.468000", "105550.468000", "105552.468000", "105554.468000", "105556.468000", "105558.468000", "105600.468000", "105602.468000", "105604.468000", "105606.468000", "105608.468000", "105610.468000", "105612.468000", "105614.468000", "105616.468000", "105618.468000", "105620.468000", "105622.468000", "105624.468000", "105626.468000", "105628.468000", "105630.468000", "105632.468000", "105634.468000", "105636.468000", "105638.468000", "105640.468000", "105642.468000", "105644.468000", "105646.468000", "105648.468000", "105650.468000", "105652.468000", "105654.468000", "105656.468000", "105658.468000", "105700.468000", "105702.468000", "105704.468000", "105706.468000", "105708.468000", "105710.468000", "105712.468000", "105714.968000", "105716.468000", "105718.468000", "105720.468000", "105722.968000", "105724.468000", "105726.468000", "105728.468000", "105730.468000", "105732.468000", "105734.468000", "105736.468000", "105738.468000", "105740.468000", "105742.468000", "105744.968000", "105746.468000", "105748.468000", "105750.468000", "105752.468000", "105754.468000", "105756.468000", "105758.468000", "105800.468000", "105802.468000", "105804.468000", "105806.468000", "105808.468000", "105810.468000", "105812.468000", "105814.468000", "105816.468000", "105818.468000", "105820.468000", "105822.468000", "105824.468000", "105826.468000", "105828.468000", "105830.468000", "105832.468000", "105834.468000", "105836.468000", "105838.468000", "105840.968000", "105842.468000", "105844.468000", "105846.468000", "105848.468000", "105850.468000", "105852.468000", "105854.468000", "105856.468000", "105858.468000", "105900.468000", "105902.468000", "105904.468000", "105906.468000", "105908.468000", "105910.468000", "105912.468000", "105914.468000", "105916.468000", "105918.468000", "105920.468000", "105922.468000", "105924.468000", "105926.968000", "105928.468000", "105930.468000", "105932.468000", "105934.468000", "105936.468000", "105938.468000", "105940.468000", "105942.468000", "105944.468000", "105946.468000", "105948.468000", "105950.468000", "105952.468000", "105954.468000", "105956.468000", "105958.468000", "110000.468000", "110002.468000", "110004.468000", "110006.468000", "110008.468000", "110010.468000", "110012.468000", "110014.468000", "110016.468000", "110018.468000", "110020.468000", "110022.468000", "110024.468000", "110026.468000", "110028.468000", "110030.468000", "110032.468000", "110034.968000", "110036.968000", "110038.468000", "110040.468000", "110042.468000", "110044.468000", "110046.468000", "110048.468000", "110050.468000", "110052.468000", "110054.312000"],
      "InstanceCreationTime": ["105356.468000", "105358.468000", "105400.468000", "105402.468000", "105404.468000", "105406.468000", "105408.468000", "105410.468000", "105412.468000", "105414.468000", "105416.468000", "105418.468000", "105420.468000", "105422.468000", "105424.468000", "105426.468000", "105428.468000", "105430.468000", "105432.468000", "105434.468000", "105436.468000", "105438.468000", "105440.468000", "105442.468000", "105444.468000", "105446.468000", "105448.468000", "105450.468000", "105452.468000", "105454.468000", "105456.468000", "105458.468000", "105500.468000", "105502.468000", "105504.468000", "105506.468000", "105508.468000", "105510.468000", "105512.468000", "105514.468000", "105516.468000", "105518.468000", "105520.468000", "105522.468000", "105524.468000", "105526.468000", "105528.468000", "105530.468000", "105532.468000", "105534.468000", "105536.468000", "105538.468000", "105540.468000", "105542.468000", "105544.468000", "105546.468000", "105548.468000", "105550.468000", "105552.468000", "105554.468000", "105556.468000", "105558.468000", "105600.468000", "105602.468000", "105604.468000", "105606.468000", "105608.468000", "105610.468000", "105612.468000", "105614.468000", "105616.468000", "105618.468000", "105620.468000", "105622.468000", "105624.468000", "105626.468000", "105628.468000", "105630.468000", "105632.468000", "105634.468000", "105636.468000", "105638.468000", "105640.468000", "105642.468000", "105644.468000", "105646.468000", "105648.468000", "105650.468000", "105652.468000", "105654.468000", "105656.468000", "105658.468000", "105700.468000", "105702.468000", "105704.468000", "105706.468000", "105708.468000", "105710.468000", "105712.468000", "105714.968000", "105716.468000", "105718.468000", "105720.468000", "105722.968000", "105724.468000", "105726.468000", "105728.468000", "105730.468000", "105732.468000", "105734.468000", "105736.468000", "105738.468000", "105740.468000", "105742.468000", "105744.968000", "105746.468000", "105748.468000", "105750.468000", "105752.468000", "105754.468000", "105756.468000", "105758.468000", "105800.468000", "105802.468000", "105804.468000", "105806.468000", "105808.468000", "105810.468000", "105812.468000", "105814.468000", "105816.468000", "105818.468000", "105820.468000", "105822.468000", "105824.468000", "105826.468000", "105828.468000", "105830.468000", "105832.468000", "105834.468000", "105836.468000", "105838.468000", "105840.968000", "105842.468000", "105844.468000", "105846.468000", "105848.468000", "105850.468000", "105852.468000", "105854.468000", "105856.468000", "105858.468000", "105900.468000", "105902.468000", "105904.468000", "105906.468000", "105908.468000", "105910.468000", "105912.468000", "105914.468000", "105916.468000", "105918.468000", "105920.468000", "105922.468000", "105924.468000", "105926.968000", "105928.468000", "105930.468000", "105932.468000", "105934.468000", "105936.468000", "105938.468000", "105940.468000", "105942.468000", "105944.468000", "105946.468000", "105948.468000", "105950.468000", "105952.468000", "105954.468000", "105956.468000", "105958.468000", "110000.468000", "110002.468000", "110004.468000", "110006.468000", "110008.468000", "110010.468000", "110012.468000", "110014.468000", "110016.468000", "110018.468000", "110020.468000", "110022.468000", "110024.468000", "110026.468000", "110028.468000", "110030.468000", "110032.468000", "110034.968000", "110036.968000", "110038.468000", "110040.468000", "110042.468000", "110044.468000", "110046.468000", "110048.468000", "110050.468000", "110052.468000", "110054.312000"],
      "InstanceNumber": [1, 2, 3, 4, 5, 6, 7, 8, 9, 10, 11, 12, 13, 14, 15, 16, 17, 18, 19, 20, 21, 22, 23, 24, 25, 26, 27, 28, 29, 30, 31, 32, 33, 34, 35, 36, 37, 38, 39, 40, 41, 42, 43, 44, 45, 46, 47, 48, 49, 50, 51, 52, 53, 54, 55, 56, 57, 58, 59, 60, 61, 62, 63, 64, 65, 66, 67, 68, 69, 70, 71, 72, 73, 74, 75, 76, 77, 78, 79, 80, 81, 82, 83, 84, 85, 86, 87, 88, 89, 90, 91, 92, 93, 94, 95, 96, 97, 98, 99, 100, 101, 102, 103, 104, 105, 106, 107, 108, 109, 110, 111, 112, 113, 114, 115, 116, 117, 118, 119, 120, 121, 122, 123, 124, 125, 126, 127, 128, 129, 130, 131, 132, 133, 134, 135, 136, 137, 138, 139, 140, 141, 142, 143, 144, 145, 146, 147, 148, 149, 150, 151, 152, 153, 154, 155, 156, 157, 158, 159, 160, 161, 162, 163, 164, 165, 166, 167, 168, 169, 170, 171, 172, 173, 174, 175, 176, 177, 178, 179, 180, 181, 182, 183, 184, 185, 186, 187, 188, 189, 190, 191, 192, 193, 194, 195, 196, 197, 198, 199, 200, 201, 202, 203, 204, 205, 206, 207, 208, 209, 210],
      "LargestImagePixelValue": [1847, 1870, 1748, 1731, 1711, 1729, 1716, 1730, 1726, 1713, 1717, 1735, 1762, 1728, 1727, 1714, 1706, 1716, 1746, 1759, 1725, 1757, 1735, 1761, 1760, 1721, 1712, 1735, 1770, 1733, 1722, 1747, 1736, 1751, 1814, 1790, 1759, 1762, 1736, 1730, 1720, 1729, 1728, 1717, 1749, 1723, 1744, 1711, 1727, 1741, 1742, 1774, 1727, 1728, 1730, 1717, 1727, 1720, 1707, 1710, 1746, 1754, 1752, 1722, 1710, 1722, 1741, 1722, 1719, 1713, 1735, 1719, 1721, 1724, 1728, 1722, 1748, 1718, 1721, 1726, 1715, 1715, 1755, 1719, 1721, 1726, 1728, 1732, 1738, 1724, 1713, 1717, 1742, 1725, 1716, 1716, 1715, 1718, 1719, 1718, 1717, 1721, 1723, 1751, 1728, 1746, 1726, 1751, 1723, 1705, 1716, 1750, 1781, 1713, 1721, 1733, 1711, 1720, 1711, 1710, 1715, 1727, 1723, 1714, 1710, 1704, 1740, 1728, 1704, 1719, 1771, 1759, 1710, 1707, 1776, 1769, 1732, 1749, 1742, 1718, 1701, 1709, 1720, 1717, 1747, 1757, 1750, 1717, 1713, 1710, 1734, 1756, 1708, 1722, 1728, 1710, 1724, 1770, 1767, 1746, 1760, 1749, 1736, 1720, 1695, 1715, 1708, 1714, 1716, 1707, 1731, 1719, 1716, 1708, 1712, 1705, 1712, 1721, 1701, 1715, 1723, 1709, 1712, 1704, 1722, 1713, 1723, 1747, 1728, 1726, 1739, 1705, 1727, 1703, 1712, 1774, 1790, 1731, 1752, 1709, 1707, 1813, 1738, 1885, 1711, 1714, 1726, 1722, 1742, 1751],
      "WindowCenter": [750.0, 746.0, 743.0, 743.0, 744.0, 745.0, 744.0, 744.0, 743.0, 744.0, 744.0, 744.0, 744.0, 744.0, 744.0, 743.0, 742.0, 743.0, 745.0, 744.0, 744.0, 745.0, 746.0, 746.0, 745.0, 744.0, 744.0, 745.0, 746.0, 745.0, 745.0, 744.0, 744.0, 745.0, 746.0, 746.0, 744.0, 743.0, 743.0, 744.0, 744.0, 744.0, 743.0, 744.0, 746.0, 745.0, 745.0, 744.0, 745.0, 746.0, 746.0, 745.0, 745.0, 746.0, 746.0, 746.0, 746.0, 746.0, 746.0, 746.0, 746.0, 746.0, 746.0, 746.0, 746.0, 746.0, 745.0, 745.0, 745.0, 745.0, 745.0, 745.0, 744.0, 745.0, 746.0, 746.0, 746.0, 746.0, 745.0, 745.0, 745.0, 746.0, 746.0, 746.0, 746.0, 746.0, 746.0, 746.0, 747.0, 745.0, 745.0, 745.0, 745.0, 745.0, 744.0, 743.0, 745.0, 745.0, 744.0, 744.0, 744.0, 746.0, 745.0, 744.0, 743.0, 745.0, 745.0, 745.0, 745.0, 745.0, 746.0, 747.0, 745.0, 743.0, 745.0, 746.0, 745.0, 745.0, 745.0, 745.0, 744.0, 745.0, 745.0, 745.0, 744.0, 744.0, 746.0, 746.0, 744.0, 745.0, 748.0, 747.0, 745.0, 745.0, 747.0, 746.0, 744.0, 743.0, 743.0, 744.0, 745.0, 746.0, 746.0, 746.0, 746.0, 747.0, 745.0, 744.0, 745.0, 746.0, 746.0, 745.0, 744.0, 745.0, 745.0, 744.0, 746.0, 747.0, 747.0, 747.0, 747.0, 747.0, 747.0, 746.0, 745.0, 745.0, 745.0, 745.0, 745.0, 745.0, 747.0, 747.0, 746.0, 745.0, 745.0, 745.0, 746.0, 746.0, 745.0, 745.0, 746.0, 746.0, 746.0, 745.0, 746.0, 747.0, 747.0, 746.0, 746.0, 747.0, 746.0, 744.0, 745.0, 746.0, 746.0, 744.0, 745.0, 747.0, 747.0, 745.0, 744.0, 745.0, 745.0, 746.0, 744.0, 746.0, 747.0, 746.0, 748.0, 748.0],
      "WindowWidth": [1590.0, 1581.0, 1574.0, 1574.0, 1575.0, 1577.0, 1576.0, 1575.0, 1574.0, 1576.0, 1575.0, 1575.0, 1576.0, 1575.0, 1574.0, 1572.0, 1569.0, 1573.0, 1578.0, 1575.0, 1575.0, 1578.0, 1579.0, 1579.0, 1577.0, 1576.0, 1574.0, 1578.0, 1581.0, 1578.0, 1576.0, 1576.0, 1575.0, 1578.0, 1581.0, 1580.0, 1576.0, 1573.0, 1574.0, 1577.0, 1576.0, 1574.0, 1572.0, 1574.0, 1579.0, 1579.0, 1577.0, 1575.0, 1577.0, 1580.0, 1579.0, 1577.0, 1579.0, 1580.0, 1580.0, 1579.0, 1580.0, 1580.0, 1580.0, 1581.0, 1581.0, 1579.0, 1579.0, 1579.0, 1579.0, 1580.0, 1579.0, 1578.0, 1577.0, 1578.0, 1579.0, 1577.0, 1576.0, 1577.0, 1580.0, 1581.0, 1579.0, 1579.0, 1578.0, 1577.0, 1577.0, 1579.0, 1579.0, 1580.0, 1581.0, 1581.0, 1580.0, 1581.0, 1582.0, 1578.0, 1578.0, 1578.0, 1579.0, 1578.0, 1576.0, 1574.0, 1578.0, 1578.0, 1576.0, 1575.0, 1576.0, 1581.0, 1577.0, 1575.0, 1574.0, 1578.0, 1578.0, 1579.0, 1577.0, 1578.0, 1581.0, 1584.0, 1578.0, 1574.0, 1577.0, 1580.0, 1577.0, 1577.0, 1577.0, 1577.0, 1576.0, 1577.0, 1577.0, 1578.0, 1576.0, 1575.0, 1582.0, 1580.0, 1576.0, 1579.0, 1586.0, 1583.0, 1577.0, 1577.0, 1584.0, 1581.0, 1574.0, 1573.0, 1574.0, 1575.0, 1577.0, 1579.0, 1579.0, 1581.0, 1581.0, 1582.0, 1578.0, 1576.0, 1577.0, 1579.0, 1580.0, 1578.0, 1577.0, 1579.0, 1576.0, 1575.0, 1580.0, 1583.0, 1582.0, 1582.0, 1583.0, 1583.0, 1583.0, 1581.0, 1577.0, 1578.0, 1578.0, 1578.0, 1577.0, 1578.0, 1582.0, 1582.0, 1580.0, 1577.0, 1577.0, 1579.0, 1580.0, 1580.0, 1578.0, 1578.0, 1581.0, 1581.0, 1580.0, 1578.0, 1580.0, 1582.0, 1582.0, 1581.0, 1581.0, 1582.0, 1579.0, 1576.0, 1578.0, 1580.0, 1580.0, 1575.0, 1577.0, 1582.0, 1582.0, 1577.0, 1575.0, 1578.0, 1578.0, 1579.0, 1575.0, 1579.0, 1582.0, 1580.0, 1584.0, 1585.0]
    },
    "slices": {}
  }
}