{
  "AcquisitionMatrixPE": 64,
  "AcquisitionNumber": 1,
  "AcquisitionTime": "10:23:21.382500",
  "BandwidthPerPixelPhaseEncode": 30.637,
  "BaseResolution": 64,
  "BidsGuess": [
    "func",
    "_acq-epfid2_dir-AP_run-6_bold"
],
  "CoilCombinationMethod": "Sum of Squares",
  "CoilString": "C:HEA;HEP",
  "ConversionSoftware": "dcm2niix",
  "ConversionSoftwareVersion": "v1.0.20240202",
  "DerivedVendorReportedEchoSpacing": 0.000510004,
  "DeviceSerialNumber": "35119",
  "DwellTime": 3.5e-06,
  "EchoTime": 0.03,
  "EffectiveEchoSpacing": 0.000510004,
  "FlipAngle": 78,
  "HeudiconvVersion": "1.1.6",
  "ImageComments": "V",
  "ImageOrientationPatientDICOM": [1, 0, 0, 0, 0.904827, -0.425779],
  "ImageOrientationText": "Tra>Cor(-25.2)",
  "ImageType": [
    "ORIGINAL",
    "PRIMARY",
    "M",
    "ND",
    "MOSAIC"
],
  "ImagingFrequency": 123.251802,
  "InPlanePhaseEncodingDirectionDICOM": "COL",
  "InstitutionAddress": "Chaucer Road  15,Cambridge,UK,GB,CB2 2EF",
  "InstitutionName": "MRC-CBU",
  "MRAcquisitionType": "2D",
  "MagneticFieldStrength": 3,
  "Manufacturer": "Siemens",
  "ManufacturersModelName": "TrioTim",
  "MatrixCoilMode": "SENSE",
  "Modality": "MR",
  "NonlinearGradientCorrection": false,
  "PartialFourier": 1,
  "PatientPosition": "HFS",
  "PercentPhaseFOV": 100,
  "PercentSampling": 100,
  "PhaseEncodingDirection": "j-",
  "PhaseEncodingSteps": 64,
  "PhaseResolution": 1,
  "PixelBandwidth": 2230,
  "ProcedureStepDescription": "CBU^Neuroimaging",
  "ProtocolName": "CBU_DWEPI_BOLD210",
  "PulseSequenceDetails": "%SiemensSeq%\\ep2d_bold",
  "ReceiveCoilName": "HeadMatrix",
  "ReconMatrixPE": 64,
  "RepetitionTime": 2,
  "SAR": 0.134505,
  "ScanOptions": "FS",
  "ScanningSequence": "EP",
  "SequenceName": "*epfid2d1_64",
  "SequenceVariant": "SK",
  "SeriesDescription": "CBU_DWEPI_BOLD210",
  "SeriesNumber": 6,
  "ShimSetting": [-7826, -8756, -2054, 827, 86, 418, -65, 142],
  "SliceThickness": 3,
  "SliceTiming": [0, 1.035, 0.0625, 1.095, 0.1225, 1.1575, 0.1825, 1.2175, 0.245, 1.2775, 0.305, 1.34, 0.365, 1.4, 0.4275, 1.46, 0.4875, 1.5225, 0.5475, 1.5825, 0.61, 1.6425, 0.67, 1.705, 0.73, 1.765, 0.7925, 1.825, 0.8525, 1.8875, 0.9125, 1.9475, 0.975],
  "SoftwareVersions": "syngo MR B15",
  "SpacingBetweenSlices": 3.75,
  "StationName": "MRC35119",
  "TaskName": "faceprocessing",
  "TotalReadoutTime": 0.0321303,
  "TxRefAmp": 300.239,
  "dcmmeta_affine": [
    [-3.0, 0.0, 0.0, 98.03389739990234],
    [0.0, 2.7144811153411865, -1.596671223640442, -50.36967849731445],
    [0.0, 1.2773369550704956, 3.393101215362549, -80.83121490478516],
    [0.0, 0.0, 0.0, 1.0]
],
  "dcmmeta_reorient_transform": [
    [0.0, -1.0, 0.0, 63.0],
    [1.0, 0.0, 0.0, 0.0],
    [0.0, 0.0, 1.0, 0.0],
    [0.0, 0.0, 0.0, 1.0]
],
  "dcmmeta_shape": [64, 64, 33, 210],
  "dcmmeta_slice_dim": 2,
  "dcmmeta_version": 0.6,
  "global": {
    "const": {
      "AcquisitionMatrix": [64, 0, 0, 64],
      "AngioFlag": "N",
      "BitsAllocated": 16,
      "BitsStored": 12,
      "Columns": 384,
      "EchoNumbers": 1,
      "EchoTime": 30.0,
      "EchoTrainLength": 1,
      "FlipAngle": 78.0,
      "HighBit": 11,
      "ImageOrientationPatient": [1.0, 0.0, 0.0, 0.0, 0.904827, -0.425779],
      "ImagePositionPatient": [-578.033898, -554.959586, 204.014934],
      "ImageType": [
        "ORIGINAL",
        "PRIMARY",
        "M",
        "ND",
        "MOSAIC"
],
      "ImagedNucleus": "1H",
      "ImagingFrequency": 123.251802,
      "InPlanePhaseEncodingDirection": "COL",
      "MRAcquisitionType": "2D",
      "MagneticFieldStrength": 3.0,
      "Manufacturer": "SIEMENS",
      "ManufacturerModelName": "TrioTim",
      "Modality": "MR",
      "NumberOfAverages": 1.0,
      "NumberOfPhaseEncodingSteps": 64,
      "PercentPhaseFieldOfView": 100.0,
      "PercentSampling": 100.0,
      "PerformedProcedureStepStartTime": "095125.984000",
      "PhotometricInterpretation": "MONOCHROME2",
      "PixelAspectRatio": [1, 1],
      "PixelBandwidth": 2230.0,
      "PixelRepresentation": 0,
      "PixelSpacing": [3.0, 3.0],
      "ProtocolName": "CBU_DWEPI_BOLD210",
      "RepetitionTime": 2000.0,
      "Rows": 384,
      "SAR": 0.134505,
      "SamplesPerPixel": 1,
      "ScanOptions": "FS",
      "ScanningSequence": "EP",
      "SequenceName": "*epfid2d1_64",
      "SequenceVariant": "SK",
      "SeriesDescription": "CBU_DWEPI_BOLD210",
      "SeriesNumber": 6,
      "SeriesTime": "102324.000000",
      "SliceLocation": -51.692062,
      "SliceThickness": 3.0,
      "SmallestImagePixelValue": 0,
      "SoftwareVersions": "syngo MR B15",
      "SpacingBetweenSlices": 3.75,
      "SpecificCharacterSet": "ISO_IR 100",
      "StudyID": "1",
      "StudyTime": "095125.921000",
      "TransmitCoilName": "Body",
      "VariableFlipAngleFlag": "N",
      "WindowCenterWidthExplanation": "Algo1",
      "dBdt": 0.0},
    "slices": {}
  },
  "time": {
    "samples": {
      "AcquisitionNumber": [1, 2, 3, 4, 5, 6, 7, 8, 9, 10, 11, 12, 13, 14, 15, 16, 17, 18, 19, 20, 21, 22, 23, 24, 25, 26, 27, 28, 29, 30, 31, 32, 33, 34, 35, 36, 37, 38, 39, 40, 41, 42, 43, 44, 45, 46, 47, 48, 49, 50, 51, 52, 53, 54, 55, 56, 57, 58, 59, 60, 61, 62, 63, 64, 65, 66, 67, 68, 69, 70, 71, 72, 73, 74, 75, 76, 77, 78, 79, 80, 81, 82, 83, 84, 85, 86, 87, 88, 89, 90, 91, 92, 93, 94, 95, 96, 97, 98, 99, 100, 101, 102, 103, 104, 105, 106, 107, 108, 109, 110, 111, 112, 113, 114, 115, 116, 117, 118, 119, 120, 121, 122, 123, 124, 125, 126, 127, 128, 129, 130, 131, 132, 133, 134, 135, 136, 137, 138, 139, 140, 141, 142, 143, 144, 145, 146, 147, 148, 149, 150, 151, 152, 153, 154, 155, 156, 157, 158, 159, 160, 161, 162, 163, 164, 165, 166, 167, 168, 169, 170, 171, 172, 173, 174, 175, 176, 177, 178, 179, 180, 181, 182, 183, 184, 185, 186, 187, 188, 189, 190, 191, 192, 193, 194, 195, 196, 197, 198, 199, 200, 201, 202, 203, 204, 205, 206, 207, 208, 209, 210],
      "AcquisitionTime": ["102321.382500", "102323.390000", "102325.400000", "102327.407500", "102329.415000", "102331.422500", "102333.432500", "102335.440000", "102337.447500", "102339.455000", "102341.462500", "102343.472500", "102345.480000", "102347.487500", "102349.495000", "102351.502500", "102353.512500", "102355.520000", "102357.527500", "102359.535000", "102401.545000", "102403.552500", "102405.560000", "102407.567500", "102409.575000", "102411.585000", "102413.592500", "102415.600000", "102417.607500", "102419.615000", "102421.625000", "102423.632500", "102425.640000", "102427.647500", "102429.657500", "102431.665000", "102433.672500", "102435.680000", "102437.687500", "102439.697500", "102441.705000", "102443.712500", "102445.720000", "102447.727500", "102449.737500", "102451.745000", "102453.752500", "102455.760000", "102457.767500", "102459.777500", "102501.785000", "102503.792500", "102505.800000", "102507.810000", "102509.817500", "102511.825000", "102513.832500", "102515.840000", "102517.850000", "102519.857500", "102521.865000", "102523.872500", "102525.880000", "102527.890000", "102529.897500", "102531.905000", "102533.912500", "102535.922500", "102537.930000", "102539.937500", "102541.945000", "102543.952500", "102545.962500", "102547.970000", "102549.977500", "102551.985000", "102553.992500", "102556.002500", "102558.010000", "102600.017500", "102602.025000", "102604.035000", "102606.042500", "102608.050000", "102610.057500", "102612.065000", "102614.075000", "102616.082500", "102618.090000", "102620.097500", "102622.105000", "102624.115000", "102626.122500", "102628.130000", "102630.137500", "102632.145000", "102634.155000", "102636.162500", "102638.170000", "102640.177500", "102642.187500", "102644.195000", "102646.202500", "102648.210000", "102650.217500", "102652.227500", "102654.235000", "102656.242500", "102658.250000", "102700.257500", "102702.267500", "102704.275000", "102706.282500", "102708.290000", "102710.300000", "102712.307500", "102714.315000", "102716.322500", "102718.330000", "102720.340000", "102722.347500", "102724.355000", "102726.362500", "102728.370000", "102730.380000", "102732.387500", "102734.395000", "102736.402500", "102738.412500", "102740.420000", "102742.427500", "102744.435000", "102746.442500", "102748.452500", "102750.460000", "102752.467500", "102754.475000", "102756.482500", "102758.492500", "102800.500000", "102802.507500", "102804.515000", "102806.525000", "102808.532500", "102810.540000", "102812.547500", "102814.555000", "102816.565000", "102818.572500", "102820.580000", "102822.587500", "102824.595000", "102826.605000", "102828.612500", "102830.620000", "102832.627500", "102834.635000", "102836.645000", "102838.652500", "102840.660000", "102842.667500", "102844.677500", "102846.685000", "102848.692500", "102850.700000", "102852.707500", "102854.717500", "102856.725000", "102858.732500", "102900.740000", "102902.747500", "102904.757500", "102906.765000", "102908.772500", "102910.780000", "102912.790000", "102914.797500", "102916.805000", "102918.812500", "102920.820000", "102922.830000", "102924.837500", "102926.845000", "102928.852500", "102930.860000", "102932.870000", "102934.877500", "102936.885000", "102938.892500", "102940.902500", "102942.910000", "102944.917500", "102946.925000", "102948.932500", "102950.942500", "102952.950000", "102954.957500", "102956.965000", "102958.972500", "103000.982500", "103002.990000", "103004.997500", "103007.005000", "103009.012500", "103011.022500", "103013.030000", "103015.037500", "103017.045000", "103019.055000", "103021.062500"],
      "ContentTime": ["102324.000000", "102326.000000", "102328.000000", "102330.000000", "102332.000000", "102334.000000", "102336.000000", "102338.000000", "102340.000000", "102342.000000", "102344.000000", "102346.000000", "102348.000000", "102350.000000", "102352.000000", "102354.000000", "102356.500000", "102358.000000", "102400.000000", "102402.000000", "102404.500000", "102406.000000", "102408.000000", "102410.000000", "102412.000000", "102414.500000", "102416.500000", "102418.500000", "102420.500000", "102422.000000", "102424.000000", "102426.000000", "102428.000000", "102430.500000", "102432.500000", "102434.000000", "102436.000000", "102438.000000", "102440.500000", "102442.000000", "102444.000000", "102446.000000", "102448.000000", "102450.000000", "102452.000000", "102454.000000", "102456.000000", "102458.000000", "102500.000000", "102502.000000", "102504.000000", "102506.000000", "102508.000000", "102510.000000", "102512.500000", "102514.000000", "102516.000000", "102518.000000", "102520.000000", "102522.000000", "102524.000000", "102526.000000", "102528.000000", "102530.000000", "102532.000000", "102534.000000", "102536.000000", "102538.000000", "102540.000000", "102542.000000", "102544.000000", "102546.000000", "102548.000000", "102550.000000", "102552.000000", "102554.000000", "102556.000000", "102558.000000", "102600.000000", "102602.000000", "102604.000000", "102606.000000", "102608.000000", "102610.000000", "102612.000000", "102614.000000", "102616.000000", "102618.500000", "102620.000000", "102622.000000", "102624.000000", "102626.000000", "102628.000000", "102630.000000", "102632.000000", "102634.000000", "102636.000000", "102638.000000", "102640.000000", "102642.000000", "102644.000000", "102646.000000", "102648.500000", "102650.000000", "102652.000000", "102654.000000", "102656.000000", "102658.000000", "102700.000000", "102702.000000", "102704.000000", "102706.000000", "102708.000000", "102710.000000", "102712.000000", "102714.000000", "102716.500000", "102718.000000", "102720.000000", "102722.000000", "102724.000000", "102726.000000", "102728.000000", "102730.000000", "102732.000000", "102734.000000", "102736.000000", "102738.000000", "102740.000000", "102742.000000", "102744.000000", "102746.000000", "102748.000000", "102750.000000", "102752.000000", "102754.000000", "102756.000000", "102758.000000", "102800.000000", "102802.500000", "102804.000000", "102806.000000", "102808.000000", "102810.000000", "102812.000000", "102814.000000", "102816.000000", "102818.000000", "102820.000000", "102822.000000", "102824.000000", "102826.000000", "102828.000000", "102830.000000", "102832.500000", "102834.000000", "102836.000000", "102838.000000", "102840.000000", "102842.000000", "102844.000000", "102846.000000", "102848.000000", "102850.000000", "102852.000000", "102854.000000", "102856.500000", "102858.000000", "102900.000000", "102902.000000", "102904.000000", "102906.000000", "102908.000000", "102910.500000", "102912.000000", "102914.000000", "102916.000000", "102918.000000", "102920.000000", "102922.000000", "102924.000000", "102926.500000", "102928.000000", "102930.000000", "102932.500000", "102934.000000", "102936.000000", "102938.000000", "102940.000000", "102942.000000", "102944.000000", "102946.000000", "102948.000000", "102950.000000", "102952.000000", "102954.000000", "102956.000000", "102958.000000", "103000.000000", "103002.000000", "103004.000000", "103006.000000", "103008.000000", "103010.000000", "103012.000000", "103014.000000", "103016.000000", "103018.000000", "103020.000000", "103021.937000"],
      "InstanceCreationTime": ["102324.000000", "102326.000000", "102328.000000", "102330.000000", "102332.000000", "102334.000000", "102336.000000", "102338.000000", "102340.000000", "102342.000000", "102344.000000", "102346.000000", "102348.000000", "102350.000000", "102352.000000", "102354.000000", "102356.500000", "102358.000000", "102400.000000", "102402.000000", "102404.500000", "102406.000000", "102408.000000", "102410.000000", "102412.000000", "102414.500000", "102416.500000", "102418.500000", "102420.500000", "102422.000000", "102424.000000", "102426.000000", "102428.000000", "102430.500000", "102432.500000", "102434.000000", "102436.000000", "102438.000000", "102440.500000", "102442.000000", "102444.000000", "102446.000000", "102448.000000", "102450.000000", "102452.000000", "102454.000000", "102456.000000", "102458.000000", "102500.000000", "102502.000000", "102504.000000", "102506.000000", "102508.000000", "102510.000000", "102512.500000", "102514.000000", "102516.000000", "102518.000000", "102520.000000", "102522.000000", "102524.000000", "102526.000000", "102528.000000", "102530.000000", "102532.000000", "102534.000000", "102536.000000", "102538.000000", "102540.000000", "102542.000000", "102544.000000", "102546.000000", "102548.000000", "102550.000000", "102552.000000", "102554.000000", "102556.000000", "102558.000000", "102600.000000", "102602.000000", "102604.000000", "102606.000000", "102608.000000", "102610.000000", "102612.000000", "102614.000000", "102616.000000", "102618.500000", "102620.000000", "102622.000000", "102624.000000", "102626.000000", "102628.000000", "102630.000000", "102632.000000", "102634.000000", "102636.000000", "102638.000000", "102640.000000", "102642.000000", "102644.000000", "102646.000000", "102648.500000", "102650.000000", "102652.000000", "102654.000000", "102656.000000", "102658.000000", "102700.000000", "102702.000000", "102704.000000", "102706.000000", "102708.000000", "102710.000000", "102712.000000", "102714.000000", "102716.500000", "102718.000000", "102720.000000", "102722.000000", "102724.000000", "102726.000000", "102728.000000", "102730.000000", "102732.000000", "102734.000000", "102736.000000", "102738.000000", "102740.000000", "102742.000000", "102744.000000", "102746.000000", "102748.000000", "102750.000000", "102752.000000", "102754.000000", "102756.000000", "102758.000000", "102800.000000", "102802.500000", "102804.000000", "102806.000000", "102808.000000", "102810.000000", "102812.000000", "102814.000000", "102816.000000", "102818.000000", "102820.000000", "102822.000000", "102824.000000", "102826.000000", "102828.000000", "102830.000000", "102832.500000", "102834.000000", "102836.000000", "102838.000000", "102840.000000", "102842.000000", "102844.000000", "102846.000000", "102848.000000", "102850.000000", "102852.000000", "102854.000000", "102856.500000", "102858.000000", "102900.000000", "102902.000000", "102904.000000", "102906.000000", "102908.000000", "102910.500000", "102912.000000", "102914.000000", "102916.000000", "102918.000000", "102920.000000", "102922.000000", "102924.000000", "102926.500000", "102928.000000", "102930.000000", "102932.500000", "102934.000000", "102936.000000", "102938.000000", "102940.000000", "102942.000000", "102944.000000", "102946.000000", "102948.000000", "102950.000000", "102952.000000", "102954.000000", "102956.000000", "102958.000000", "103000.000000", "103002.000000", "103004.000000", "103006.000000", "103008.000000", "103010.000000", "103012.000000", "103014.000000", "103016.000000", "103018.000000", "103020.000000", "103021.937000"],
      "InstanceNumber": [1, 2, 3, 4, 5, 6, 7, 8, 9, 10, 11, 12, 13, 14, 15, 16, 17, 18, 19, 20, 21, 22, 23, 24, 25, 26, 27, 28, 29, 30, 31, 32, 33, 34, 35, 36, 37, 38, 39, 40, 41, 42, 43, 44, 45, 46, 47, 48, 49, 50, 51, 52, 53, 54, 55, 56, 57, 58, 59, 60, 61, 62, 63, 64, 65, 66, 67, 68, 69, 70, 71, 72, 73, 74, 75, 76, 77, 78, 79, 80, 81, 82, 83, 84, 85, 86, 87, 88, 89, 90, 91, 92, 93, 94, 95, 96, 97, 98, 99, 100, 101, 102, 103, 104, 105, 106, 107, 108, 109, 110, 111, 112, 113, 114, 115, 116, 117, 118, 119, 120, 121, 122, 123, 124, 125, 126, 127, 128, 129, 130, 131, 132, 133, 134, 135, 136, 137, 138, 139, 140, 141, 142, 143, 144, 145, 146, 147, 148, 149, 150, 151, 152, 153, 154, 155, 156, 157, 158, 159, 160, 161, 162, 163, 164, 165, 166, 167, 168, 169, 170, 171, 172, 173, 174, 175, 176, 177, 178, 179, 180, 181, 182, 183, 184, 185, 186, 187, 188, 189, 190, 191, 192, 193, 194, 195, 196, 197, 198, 199, 200, 201, 202, 203, 204, 205, 206, 207, 208, 209, 210],
      "LargestImagePixelValue": [1836, 1780, 1731, 1725, 1754, 1798, 1775, 1722, 1717, 1737, 1707, 1741, 1730, 1715, 1730, 1721, 1726, 1715, 1703, 1728, 1757, 1721, 1736, 1737, 1757, 1749, 1728, 1738, 1739, 1735, 1762, 1754, 1710, 1791, 1786, 1738, 1726, 1723, 1742, 1743, 1715, 1700, 1709, 1749, 1762, 1745, 1710, 1738, 1751, 1743, 1720, 1727, 1744, 1757, 1759, 1767, 1783, 1734, 1719, 1730, 1738, 1720, 1729, 1760, 1729, 1732, 1725, 1719, 1720, 1703, 1733, 1762, 1763, 1724, 1722, 1744, 1722, 1723, 1737, 1746, 1730, 1755, 1733, 1714, 1700, 1721, 1769, 1743, 1740, 1727, 1757, 1746, 1753, 1731, 1720, 1738, 1777, 1724, 1710, 1754, 1776, 1739, 1721, 1748, 1724, 1726, 1761, 1779, 1778, 1754, 1754, 1729, 1741, 1755, 1744, 1753, 1742, 1727, 1724, 1735, 1715, 1733, 1781, 1776, 1782, 1763, 1741, 1748, 1738, 1728, 1701, 1736, 1787, 1804, 1772, 1767, 1776, 1774, 1772, 1780, 1759, 1738, 1755, 1726, 1753, 1758, 1724, 1748, 1764, 1778, 1780, 1741, 1736, 1726, 1757, 1763, 1753, 1740, 1757, 1754, 1763, 1837, 1759, 1773, 1743, 1741, 1751, 1793, 1753, 1759, 1776, 1747, 1752, 1748, 1768, 1755, 1746, 1744, 1753, 1747, 1772, 1789, 1758, 1772, 1751, 1740, 1759, 1737, 1741, 1752, 1776, 1757, 1712, 1731, 1703, 1741, 1765, 1739, 1737, 1749, 1753, 1766, 1804, 1765, 1718, 1717, 1728, 1751, 1738, 1736],
      "WindowCenter": [744.0, 740.0, 738.0, 738.0, 738.0, 740.0, 739.0, 737.0, 736.0, 737.0, 737.0, 738.0, 738.0, 736.0, 737.0, 737.0, 737.0, 737.0, 737.0, 737.0, 737.0, 737.0, 738.0, 738.0, 738.0, 738.0, 738.0, 739.0, 738.0, 739.0, 739.0, 738.0, 739.0, 742.0, 739.0, 737.0, 737.0, 737.0, 738.0, 738.0, 737.0, 736.0, 737.0, 740.0, 739.0, 737.0, 737.0, 740.0, 740.0, 739.0, 738.0, 738.0, 738.0, 739.0, 739.0, 741.0, 740.0, 738.0, 737.0, 738.0, 739.0, 739.0, 739.0, 739.0, 739.0, 739.0, 739.0, 738.0, 738.0, 739.0, 740.0, 741.0, 740.0, 739.0, 739.0, 739.0, 739.0, 738.0, 739.0, 739.0, 738.0, 738.0, 738.0, 738.0, 738.0, 739.0, 740.0, 739.0, 738.0, 738.0, 740.0, 741.0, 740.0, 738.0, 738.0, 740.0, 740.0, 739.0, 739.0, 740.0, 739.0, 738.0, 739.0, 738.0, 738.0, 739.0, 739.0, 739.0, 740.0, 740.0, 739.0, 739.0, 739.0, 740.0, 739.0, 738.0, 738.0, 737.0, 738.0, 739.0, 739.0, 739.0, 740.0, 740.0, 740.0, 739.0, 739.0, 739.0, 739.0, 738.0, 738.0, 740.0, 743.0, 743.0, 741.0, 740.0, 740.0, 740.0, 741.0, 741.0, 740.0, 740.0, 740.0, 739.0, 739.0, 740.0, 738.0, 738.0, 739.0, 741.0, 740.0, 738.0, 738.0, 739.0, 740.0, 739.0, 739.0, 739.0, 740.0, 741.0, 740.0, 740.0, 739.0, 740.0, 740.0, 740.0, 740.0, 740.0, 740.0, 741.0, 741.0, 741.0, 741.0, 741.0, 741.0, 740.0, 740.0, 739.0, 739.0, 739.0, 742.0, 742.0, 740.0, 740.0, 740.0, 740.0, 741.0, 740.0, 739.0, 739.0, 740.0, 739.0, 739.0, 739.0, 739.0, 740.0, 741.0, 740.0, 738.0, 739.0, 739.0, 739.0, 739.0, 738.0, 738.0, 740.0, 740.0, 740.0, 740.0, 741.0],
      "WindowWidth": [1576.0, 1565.0, 1561.0, 1560.0, 1561.0, 1566.0, 1564.0, 1558.0, 1556.0, 1557.0, 1558.0, 1560.0, 1560.0, 1556.0, 1557.0, 1559.0, 1558.0, 1558.0, 1558.0, 1557.0, 1558.0, 1558.0, 1561.0, 1560.0, 1561.0, 1561.0, 1561.0, 1562.0, 1561.0, 1563.0, 1564.0, 1561.0, 1563.0, 1570.0, 1564.0, 1558.0, 1557.0, 1558.0, 1561.0, 1561.0, 1559.0, 1556.0, 1559.0, 1565.0, 1563.0, 1559.0, 1559.0, 1565.0, 1566.0, 1562.0, 1561.0, 1561.0, 1562.0, 1562.0, 1565.0, 1569.0, 1565.0, 1560.0, 1558.0, 1561.0, 1562.0, 1563.0, 1564.0, 1564.0, 1563.0, 1563.0, 1562.0, 1561.0, 1562.0, 1562.0, 1566.0, 1568.0, 1566.0, 1563.0, 1562.0, 1563.0, 1563.0, 1561.0, 1562.0, 1563.0, 1562.0, 1561.0, 1559.0, 1560.0, 1560.0, 1564.0, 1565.0, 1563.0, 1561.0, 1560.0, 1566.0, 1567.0, 1564.0, 1562.0, 1561.0, 1566.0, 1567.0, 1562.0, 1563.0, 1565.0, 1564.0, 1562.0, 1563.0, 1562.0, 1561.0, 1562.0, 1564.0, 1564.0, 1565.0, 1565.0, 1564.0, 1562.0, 1564.0, 1566.0, 1563.0, 1562.0, 1560.0, 1559.0, 1561.0, 1564.0, 1564.0, 1564.0, 1565.0, 1564.0, 1565.0, 1564.0, 1564.0, 1564.0, 1564.0, 1560.0, 1560.0, 1566.0, 1572.0, 1572.0, 1567.0, 1565.0, 1567.0, 1566.0, 1567.0, 1568.0, 1565.0, 1565.0, 1566.0, 1564.0, 1564.0, 1565.0, 1560.0, 1559.0, 1564.0, 1568.0, 1567.0, 1561.0, 1560.0, 1563.0, 1565.0, 1564.0, 1564.0, 1563.0, 1567.0, 1569.0, 1566.0, 1565.0, 1564.0, 1566.0, 1565.0, 1566.0, 1566.0, 1565.0, 1565.0, 1567.0, 1567.0, 1567.0, 1567.0, 1567.0, 1568.0, 1566.0, 1565.0, 1564.0, 1564.0, 1564.0, 1570.0, 1569.0, 1566.0, 1565.0, 1564.0, 1565.0, 1567.0, 1565.0, 1564.0, 1564.0, 1565.0, 1564.0, 1562.0, 1563.0, 1563.0, 1565.0, 1569.0, 1565.0, 1561.0, 1564.0, 1564.0, 1563.0, 1563.0, 1562.0, 1561.0, 1565.0, 1566.0, 1566.0, 1566.0, 1568.0]
    },
    "slices": {}
  }
}