{
  "AcquisitionMatrixPE": 64,
  "AcquisitionNumber": 1,
  "AcquisitionTime": "18:07:17.730000",
  "BaseResolution": 64,
  "BidsGuess": [
    "fmap",
    "_acq-fm2_phasediff"
  ],
  "CoilCombinationMethod": "Adaptive Combine",
  "CoilString": "C:HEA;HEP",
  "ConversionSoftware": "dcm2niix",
  "ConversionSoftwareVersion": "v1.0.20240202",
  "DeviceSerialNumber": "35119",
  "DwellTime": 0.00003,
  "EchoNumber": 2,
  "EchoTime": 0.00765,
  "EchoTime1": 0.00519,
  "EchoTime2": 0.00765,
  "FlipAngle": 60,
  "HeudiconvVersion": "1.1.6",
  "ImageComments": "V",
  "ImageOrientationPatientDICOM": [
    1,
    0,
    0,
    0,
    0.910684,
    -0.413104
  ],
  "ImageOrientationText": "Tra>Cor(-24.4)",
  "ImageType": [
    "ORIGINAL",
    "PRIMARY",
    "P",
    "ND",
    "PHASE"
  ],
  "ImagingFrequency": 123.25213,
  "InPlanePhaseEncodingDirectionDICOM": "COL",
  "InstitutionAddress": "Chaucer Road  15,Cambridge,UK,GB,CB2 2EF",
  "InstitutionName": "MRC-CBU",
  "IntendedFor": [
    "ses-mri/func/sub-04_ses-mri_task-facerecognition_run-01_bold.nii.gz",
    "ses-mri/func/sub-04_ses-mri_task-facerecognition_run-02_bold.nii.gz",
    "ses-mri/func/sub-04_ses-mri_task-facerecognition_run-03_bold.nii.gz",
    "ses-mri/func/sub-04_ses-mri_task-facerecognition_run-04_bold.nii.gz",
    "ses-mri/func/sub-04_ses-mri_task-facerecognition_run-05_bold.nii.gz",
    "ses-mri/func/sub-04_ses-mri_task-facerecognition_run-06_bold.nii.gz",
    "ses-mri/func/sub-04_ses-mri_task-facerecognition_run-07_bold.nii.gz",
    "ses-mri/func/sub-04_ses-mri_task-facerecognition_run-08_bold.nii.gz",
    "ses-mri/func/sub-04_ses-mri_task-facerecognition_run-09_bold.nii.gz"
  ],
  "MRAcquisitionType": "2D",
  "MagneticFieldStrength": 3,
  "Manufacturer": "Siemens",
  "ManufacturersModelName": "TrioTim",
  "MatrixCoilMode": "SENSE",
  "Modality": "MR",
  "NonlinearGradientCorrection": false,
  "PartialFourier": 1,
  "PatientPosition": "HFS",
  "PercentPhaseFOV": 100,
  "PercentSampling": 100,
  "PhaseEncodingDirection": "j-",
  "PhaseEncodingSteps": 64,
  "PhaseResolution": 1,
  "PixelBandwidth": 260,
  "ProcedureStepDescription": "CBU^Neuroimaging",
  "ProtocolName": "CBU_FieldMapping",
  "PulseSequenceDetails": "%SiemensSeq%\\gre_field_mapping",
  "ReceiveCoilName": "HeadMatrix",
  "ReconMatrixPE": 64,
  "RepetitionTime": 0.4,
  "SAR": 0.205654,
  "ScanningSequence": "GR",
  "SequenceName": "*fm2d2r",
  "SequenceVariant": "SP",
  "SeriesDescription": "CBU_FieldMapping",
  "SeriesNumber": 13,
  "ShimSetting": [
    -7658,
    -8648,
    -2410,
    1006,
    731,
    687,
    -639,
    57
  ],
  "SliceThickness": 3,
  "SliceTiming": [
    0,
    0.20312,
    0.01562,
    0.21875,
    0.01562,
    0.23438,
    0.03125,
    0.23438,
    0.04688,
    0.25,
    0.0625,
    0.26562,
    0.07812,
    0.28125,
    0.07812,
    0.28125,
    0.09375,
    0.29688,
    0.10938,
    0.3125,
    0.125,
    0.32812,
    0.125,
    0.34375,
    0.14062,
    0.34375,
    0.15625,
    0.35938,
    0.17188,
    0.375,
    0.17188,
    0.39062,
    0.1875
  ],
  "SoftwareVersions": "syngo MR B15",
  "SpacingBetweenSlices": 3.75,
  "StationName": "MRC35119",
  "TxRefAmp": 297.418,
  "dcmmeta_affine": [
    [
      -3.0,
      0.0,
      0.0,
      100.06779479980469
    ],
    [
      0.0,
      2.7320520877838135,
      -1.5491410493850708,
      -54.21248245239258
    ],
    [
      0.0,
      1.2393120527267456,
      3.4150619506835938,
      -71.30657196044922
    ],
    [
      0.0,
      0.0,
      0.0,
      1.0
    ]
  ],
  "dcmmeta_reorient_transform": [
    [
      0.0,
      -1.0,
      0.0,
      63.0
    ],
    [
      1.0,
      0.0,
      0.0,
      0.0
    ],
    [
      0.0,
      0.0,
      -1.0,
      32.0
    ],
    [
      0.0,
      0.0,
      0.0,
      1.0
    ]
  ],
  "dcmmeta_shape": [
    64,
    64,
    33
  ],
  "dcmmeta_slice_dim": 2,
  "dcmmeta_version": 0.6,
  "global": {
    "const": {
      "AcquisitionMatrix": [
        64,
        0,
        0,
        64
      ],
      "AcquisitionNumber": 1,
      "AngioFlag": "N",
      "BitsAllocated": 16,
      "BitsStored": 12,
      "Columns": 64,
      "EchoNumbers": 2,
      "EchoTime": 7.65,
      "EchoTrainLength": 1,
      "FlipAngle": 60.0,
      "HighBit": 11,
      "ImageOrientationPatient": [
        1.0,
        0.0,
        0.0,
        0.0,
        0.910684,
        -0.413104
      ],
      "ImageType": [
        "ORIGINAL",
        "PRIMARY",
        "P",
        "ND"
      ],
      "ImagedNucleus": "1H",
      "ImagingFrequency": 123.25213,
      "InPlanePhaseEncodingDirection": "COL",
      "MRAcquisitionType": "2D",
      "MagneticFieldStrength": 3.0,
      "Manufacturer": "SIEMENS",
      "ManufacturerModelName": "TrioTim",
      "Modality": "MR",
      "NumberOfAverages": 1.0,
      "NumberOfPhaseEncodingSteps": 64,
      "PercentPhaseFieldOfView": 100.0,
      "PercentSampling": 100.0,
      "PerformedProcedureStepStartTime": "164906.828000",
      "PhotometricInterpretation": "MONOCHROME2",
      "PixelAspectRatio": [
        1,
        1
      ],
      "PixelBandwidth": 260.0,
      "PixelRepresentation": 0,
      "PixelSpacing": [
        3.0,
        3.0
      ],
      "ProtocolName": "CBU_FieldMapping",
      "RepetitionTime": 400.0,
      "RescaleIntercept": -4096.0,
      "RescaleSlope": 2.0,
      "RescaleType": "US",
      "Rows": 64,
      "SAR": 0.205654,
      "SamplesPerPixel": 1,
      "ScanningSequence": "GR",
      "SequenceName": "*fm2d2r",
      "SequenceVariant": "SP",
      "SeriesDescription": "CBU_FieldMapping",
      "SeriesNumber": 13,
      "SeriesTime": "180810.640000",
      "SliceThickness": 3.0,
      "SoftwareVersions": "syngo MR B15",
      "SpacingBetweenSlices": 3.75,
      "SpecificCharacterSet": "ISO_IR 100",
      "StudyID": "1",
      "StudyTime": "164906.781000",
      "TransmitCoilName": "Body",
      "VariableFlipAngleFlag": "N",
      "WindowCenterWidthExplanation": "Algo1",
      "dBdt": 0.0
    },
    "slices": {
      "AcquisitionTime": [
        "180717.730000",
        "180717.937500",
        "180717.742500",
        "180717.950000",
        "180717.755000",
        "180717.962500",
        "180717.767500",
        "180717.975000",
        "180717.780000",
        "180717.987500",
        "180717.792500",
        "180718.000000",
        "180717.805000",
        "180718.010000",
        "180717.817500",
        "180718.022500",
        "180717.827500",
        "180718.035000",
        "180717.840000",
        "180718.047500",
        "180717.852500",
        "180718.060000",
        "180717.865000",
        "180718.072500",
        "180717.877500",
        "180718.085000",
        "180717.890000",
        "180718.095000",
        "180717.902500",
        "180718.107500",
        "180717.912500",
        "180718.120000",
        "180717.925000"
      ],
      "ContentTime": [
        "180810.656000",
        "180811.625000",
        "180810.656000",
        "180811.625000",
        "180810.671000",
        "180811.640000",
        "180810.671000",
        "180811.640000",
        "180810.687000",
        "180811.640000",
        "180810.687000",
        "180811.656000",
        "180811.562000",
        "180811.875000",
        "180811.562000",
        "180811.875000",
        "180811.578000",
        "180811.890000",
        "180811.578000",
        "180811.890000",
        "180811.578000",
        "180811.906000",
        "180811.593000",
        "180811.906000",
        "180811.593000",
        "180811.906000",
        "180811.593000",
        "180811.921000",
        "180811.609000",
        "180811.921000",
        "180811.609000",
        "180812.015000",
        "180811.625000"
      ],
      "CsaImage.GSWDDataType": [
        "predicted",
        "measured",
        "predicted",
        "measured",
        "predicted",
        "measured",
        "predicted",
        "measured",
        "predicted",
        "measured",
        "predicted",
        "measured",
        "measured",
        "measured",
        "measured",
        "measured",
        "measured",
        "measured",
        "measured",
        "measured",
        "measured",
        "measured",
        "measured",
        "measured",
        "measured",
        "measured",
        "measured",
        "measured",
        "measured",
        "measured",
        "measured",
        "measured",
        "measured"
      ],
      "CsaImage.ICE_Dims": [
        "X_2_1_1_1_1_1_1_1_1_1_1_137",
        "X_2_1_1_1_1_1_18_1_1_2_1_137",
        "X_2_1_1_1_1_1_2_1_1_3_1_137",
        "X_2_1_1_1_1_1_19_1_1_4_1_137",
        "X_2_1_1_1_1_1_3_1_1_5_1_137",
        "X_2_1_1_1_1_1_20_1_1_6_1_137",
        "X_2_1_1_1_1_1_4_1_1_7_1_137",
        "X_2_1_1_1_1_1_21_1_1_8_1_137",
        "X_2_1_1_1_1_1_5_1_1_9_1_137",
        "X_2_1_1_1_1_1_22_1_1_10_1_137",
        "X_2_1_1_1_1_1_6_1_1_11_1_137",
        "X_2_1_1_1_1_1_23_1_1_12_1_137",
        "X_2_1_1_1_1_1_7_1_1_13_1_137",
        "X_2_1_1_1_1_1_24_1_1_14_1_137",
        "X_2_1_1_1_1_1_8_1_1_15_1_137",
        "X_2_1_1_1_1_1_25_1_1_16_1_137",
        "X_2_1_1_1_1_1_9_1_1_17_1_137",
        "X_2_1_1_1_1_1_26_1_1_18_1_137",
        "X_2_1_1_1_1_1_10_1_1_19_1_137",
        "X_2_1_1_1_1_1_27_1_1_20_1_137",
        "X_2_1_1_1_1_1_11_1_1_21_1_137",
        "X_2_1_1_1_1_1_28_1_1_22_1_137",
        "X_2_1_1_1_1_1_12_1_1_23_1_137",
        "X_2_1_1_1_1_1_29_1_1_24_1_137",
        "X_2_1_1_1_1_1_13_1_1_25_1_137",
        "X_2_1_1_1_1_1_30_1_1_26_1_137",
        "X_2_1_1_1_1_1_14_1_1_27_1_137",
        "X_2_1_1_1_1_1_31_1_1_28_1_137",
        "X_2_1_1_1_1_1_15_1_1_29_1_137",
        "X_2_1_1_1_1_1_32_1_1_30_1_137",
        "X_2_1_1_1_1_1_16_1_1_31_1_137",
        "X_2_1_1_1_1_1_33_1_1_32_1_137",
        "X_2_1_1_1_1_1_17_1_1_33_1_137"
      ],
      "CsaImage.ProtocolSliceNumber": [
        0,
        1,
        2,
        3,
        4,
        5,
        6,
        7,
        8,
        9,
        10,
        11,
        12,
        13,
        14,
        15,
        16,
        17,
        18,
        19,
        20,
        21,
        22,
        23,
        24,
        25,
        26,
        27,
        28,
        29,
        30,
        31,
        32
      ],
      "CsaImage.RFSWDDataType": [
        "predicted",
        "measured",
        "predicted",
        "measured",
        "predicted",
        "measured",
        "predicted",
        "measured",
        "predicted",
        "measured",
        "measured",
        "measured",
        "measured",
        "measured",
        "measured",
        "measured",
        "measured",
        "measured",
        "measured",
        "measured",
        "measured",
        "measured",
        "measured",
        "measured",
        "measured",
        "measured",
        "measured",
        "measured",
        "measured",
        "measured",
        "measured",
        "measured",
        "measured"
      ],
      "CsaImage.SliceMeasurementDuration": [
        50602.5,
        50602.5,
        50602.5,
        50602.5,
        50602.5,
        50602.5,
        50602.5,
        50602.5,
        50602.5,
        50602.5,
        50602.5,
        50600.0,
        50602.5,
        50602.5,
        50600.0,
        50602.5,
        50602.5,
        50602.5,
        50602.5,
        50602.5,
        50602.5,
        50602.5,
        50602.5,
        50602.5,
        50602.5,
        50602.5,
        50602.5,
        50602.5,
        50602.5,
        50602.5,
        50602.5,
        50602.5,
        50602.5
      ],
      "CsaImage.SlicePosition_PCS": [
        [
          -100.06779671,
          -117.90681165,
          6.77003236
        ],
        [
          -100.06779671,
          -116.35767072,
          10.18509622
        ],
        [
          -100.06779671,
          -114.80852979,
          13.60016008
        ],
        [
          -100.06779671,
          -113.25938695,
          17.01522393
        ],
        [
          -100.06779671,
          -111.71024602,
          20.43028779
        ],
        [
          -100.06779671,
          -110.16110509,
          23.8453507
        ],
        [
          -100.06779671,
          -108.61196225,
          27.26041455
        ],
        [
          -100.06779671,
          -107.06282132,
          30.67547841
        ],
        [
          -100.06779671,
          -105.51368039,
          34.09054227
        ],
        [
          -100.06779671,
          -103.96453755,
          37.50560589
        ],
        [
          -100.06779671,
          -102.41539662,
          40.92066951
        ],
        [
          -100.06779671,
          -100.86625474,
          44.33573337
        ],
        [
          -100.06779671,
          -99.31711286,
          47.75079675
        ],
        [
          -100.06779671,
          -97.76797193,
          51.16586061
        ],
        [
          -100.06779671,
          -96.21883004,
          54.58092447
        ],
        [
          -100.06779671,
          -94.66968816,
          57.99598832
        ],
        [
          -100.06779671,
          -93.12054675,
          61.41105218
        ],
        [
          -100.06779671,
          -91.57140535,
          64.82611604
        ],
        [
          -100.06779671,
          -90.02226346,
          68.2411799
        ],
        [
          -100.06779671,
          -88.47312194,
          71.65624376
        ],
        [
          -100.06779671,
          -86.92398029,
          75.07130571
        ],
        [
          -100.06779671,
          -85.37483876,
          78.48637147
        ],
        [
          -100.06779671,
          -83.82569712,
          81.90143342
        ],
        [
          -100.06779671,
          -82.27655547,
          85.31649919
        ],
        [
          -100.06779671,
          -80.72741407,
          88.73156114
        ],
        [
          -100.06779671,
          -79.17827218,
          92.1466269
        ],
        [
          -100.06779671,
          -77.6291303,
          95.56168885
        ],
        [
          -100.06779671,
          -76.07998937,
          98.97675462
        ],
        [
          -100.06779671,
          -74.53084748,
          102.39181657
        ],
        [
          -100.06779671,
          -72.9817056,
          105.80688234
        ],
        [
          -100.06779671,
          -71.43256372,
          109.22194429
        ],
        [
          -100.06779671,
          -69.88342183,
          112.63700624
        ],
        [
          -100.06779671,
          -68.3342809,
          116.05206819
        ]
      ],
      "CsaImage.TimeAfterStart": [
        0.405,
        0.61,
        0.415,
        0.6225,
        0.4275,
        0.635,
        0.44,
        0.6475,
        0.4525,
        0.66,
        0.465,
        0.6725,
        0.4775,
        0.685,
        0.49,
        0.695,
        0.5,
        0.7075,
        0.5125,
        0.72,
        0.525,
        0.7325,
        0.5375,
        0.745,
        0.55,
        0.7575,
        0.5625,
        0.77,
        0.575,
        0.78,
        0.5875,
        0.7925,
        0.5975
      ],
      "ImagePositionPatient": [
        [
          -100.067797,
          -117.906812,
          6.770032
        ],
        [
          -100.067797,
          -116.357671,
          10.185096
        ],
        [
          -100.067797,
          -114.80853,
          13.60016
        ],
        [
          -100.067797,
          -113.259387,
          17.015224
        ],
        [
          -100.067797,
          -111.710246,
          20.430288
        ],
        [
          -100.067797,
          -110.161105,
          23.845351
        ],
        [
          -100.067797,
          -108.611962,
          27.260415
        ],
        [
          -100.067797,
          -107.062821,
          30.675478
        ],
        [
          -100.067797,
          -105.51368,
          34.090542
        ],
        [
          -100.067797,
          -103.964538,
          37.505606
        ],
        [
          -100.067797,
          -102.415397,
          40.92067
        ],
        [
          -100.067797,
          -100.866255,
          44.335733
        ],
        [
          -100.067797,
          -99.317113,
          47.750797
        ],
        [
          -100.067797,
          -97.767972,
          51.165861
        ],
        [
          -100.067797,
          -96.21883,
          54.580924
        ],
        [
          -100.067797,
          -94.669688,
          57.995988
        ],
        [
          -100.067797,
          -93.120547,
          61.411052
        ],
        [
          -100.067797,
          -91.571405,
          64.826116
        ],
        [
          -100.067797,
          -90.022263,
          68.24118
        ],
        [
          -100.067797,
          -88.473122,
          71.656244
        ],
        [
          -100.067797,
          -86.92398,
          75.071306
        ],
        [
          -100.067797,
          -85.374839,
          78.486371
        ],
        [
          -100.067797,
          -83.825697,
          81.901433
        ],
        [
          -100.067797,
          -82.276555,
          85.316499
        ],
        [
          -100.067797,
          -80.727414,
          88.731561
        ],
        [
          -100.067797,
          -79.178272,
          92.146627
        ],
        [
          -100.067797,
          -77.62913,
          95.561689
        ],
        [
          -100.067797,
          -76.079989,
          98.976755
        ],
        [
          -100.067797,
          -74.530847,
          102.391817
        ],
        [
          -100.067797,
          -72.981706,
          105.806882
        ],
        [
          -100.067797,
          -71.432564,
          109.221944
        ],
        [
          -100.067797,
          -69.883422,
          112.637006
        ],
        [
          -100.067797,
          -68.334281,
          116.052068
        ]
      ],
      "InstanceCreationTime": [
        "180810.656000",
        "180811.625000",
        "180810.656000",
        "180811.625000",
        "180810.671000",
        "180811.640000",
        "180810.671000",
        "180811.640000",
        "180810.687000",
        "180811.640000",
        "180810.687000",
        "180811.656000",
        "180811.562000",
        "180811.875000",
        "180811.562000",
        "180811.875000",
        "180811.578000",
        "180811.890000",
        "180811.578000",
        "180811.890000",
        "180811.578000",
        "180811.906000",
        "180811.593000",
        "180811.906000",
        "180811.593000",
        "180811.906000",
        "180811.593000",
        "180811.921000",
        "180811.609000",
        "180811.921000",
        "180811.609000",
        "180812.015000",
        "180811.625000"
      ],
      "InstanceNumber": [
        1,
        2,
        3,
        4,
        5,
        6,
        7,
        8,
        9,
        10,
        11,
        12,
        13,
        14,
        15,
        16,
        17,
        18,
        19,
        20,
        21,
        22,
        23,
        24,
        25,
        26,
        27,
        28,
        29,
        30,
        31,
        32,
        33
      ],
      "LargestImagePixelValue": [
        4093,
        4091,
        4092,
        4092,
        4094,
        4092,
        4094,
        4078,
        4092,
        4084,
        4093,
        4087,
        4076,
        4089,
        4091,
        4088,
        4058,
        4086,
        4083,
        4091,
        4084,
        4086,
        4091,
        4093,
        4077,
        4094,
        4090,
        4089,
        4085,
        4092,
        4092,
        4093,
        4092
      ],
      "SliceLocation": [
        -42.542468,
        -38.792468,
        -35.042469,
        -31.292468,
        -27.542468,
        -23.792469,
        -20.042469,
        -16.292469,
        -12.542469,
        -8.792468,
        -5.042469,
        -1.292469,
        2.457531,
        6.207531,
        9.957531,
        13.707531,
        17.457531,
        21.207532,
        24.957532,
        28.707532,
        32.45753,
        36.207532,
        39.95753,
        43.707532,
        47.457531,
        51.207533,
        54.957531,
        58.707533,
        62.457531,
        66.207533,
        69.957532,
        73.70753,
        77.457528
      ],
      "SmallestImagePixelValue": [
        0,
        3,
        0,
        2,
        6,
        2,
        3,
        3,
        0,
        7,
        2,
        19,
        9,
        1,
        17,
        0,
        20,
        1,
        37,
        19,
        10,
        4,
        2,
        8,
        6,
        3,
        18,
        3,
        0,
        0,
        0,
        0,
        2
      ],
      "WindowCenter": [
        -272.0,
        -390.0,
        -376.0,
        -380.0,
        -370.0,
        -378.0,
        -324.0,
        -292.0,
        -276.0,
        -264.0,
        -228.0,
        -170.0,
        -262.0,
        -194.0,
        -52.0,
        -162.0,
        -6.0,
        -68.0,
        -68.0,
        -104.0,
        -90.0,
        -82.0,
        -54.0,
        -80.0,
        -106.0,
        -56.0,
        -106.0,
        -76.0,
        -44.0,
        -100.0,
        -106.0,
        -146.0,
        -158.0
      ],
      "WindowWidth": [
        6292.0,
        6216.0,
        6210.0,
        6120.0,
        5892.0,
        5882.0,
        5756.0,
        5636.0,
        5342.0,
        5180.0,
        5132.0,
        5052.0,
        4538.0,
        4514.0,
        4916.0,
        4530.0,
        5280.0,
        5248.0,
        5302.0,
        5252.0,
        5230.0,
        5304.0,
        5274.0,
        5360.0,
        5204.0,
        5538.0,
        5398.0,
        5568.0,
        5674.0,
        5696.0,
        5798.0,
        5842.0,
        6010.0
      ]
    }
  }
}
