{
  "AcquisitionMatrixPE": 64,
  "AcquisitionNumber": 1,
  "AcquisitionTime": "17:15:22.397500",
  "BandwidthPerPixelPhaseEncode": 30.637,
  "BaseResolution": 64,
  "BidsGuess": [
    "func",
    "_acq-epfid2_dir-AP_run-6_bold"
],
  "CoilCombinationMethod": "Sum of Squares",
  "CoilString": "C:HEA;HEP",
  "ConversionSoftware": "dcm2niix",
  "ConversionSoftwareVersion": "v1.0.20240202",
  "DerivedVendorReportedEchoSpacing": 0.000510004,
  "DeviceSerialNumber": "35119",
  "DwellTime": 3.5e-06,
  "EchoTime": 0.03,
  "EffectiveEchoSpacing": 0.000510004,
  "FlipAngle": 78,
  "HeudiconvVersion": "1.1.6",
  "ImageComments": "V",
  "ImageOrientationPatientDICOM": [1, 0, 0, 0, 0.930418, -0.366501],
  "ImageOrientationText": "Tra>Cor(-21.5)",
  "ImageType": [
    "ORIGINAL",
    "PRIMARY",
    "M",
    "ND",
    "MOSAIC"
],
  "ImagingFrequency": 123.251851,
  "InPlanePhaseEncodingDirectionDICOM": "COL",
  "InstitutionAddress": "Chaucer Road  15,Cambridge,UK,GB,CB2 2EF",
  "InstitutionName": "MRC-CBU",
  "MRAcquisitionType": "2D",
  "MagneticFieldStrength": 3,
  "Manufacturer": "Siemens",
  "ManufacturersModelName": "TrioTim",
  "MatrixCoilMode": "SENSE",
  "Modality": "MR",
  "NonlinearGradientCorrection": false,
  "PartialFourier": 1,
  "PatientPosition": "HFS",
  "PercentPhaseFOV": 100,
  "PercentSampling": 100,
  "PhaseEncodingDirection": "j-",
  "PhaseEncodingSteps": 64,
  "PhaseResolution": 1,
  "PixelBandwidth": 2230,
  "ProcedureStepDescription": "CBU^Neuroimaging",
  "ProtocolName": "CBU_DWEPI_BOLD210",
  "PulseSequenceDetails": "%SiemensSeq%\\ep2d_bold",
  "ReceiveCoilName": "HeadMatrix",
  "ReconMatrixPE": 64,
  "RepetitionTime": 2,
  "SAR": 0.139265,
  "ScanOptions": "FS",
  "ScanningSequence": "EP",
  "SequenceName": "*epfid2d1_64",
  "SequenceVariant": "SK",
  "SeriesDescription": "CBU_DWEPI_BOLD210",
  "SeriesNumber": 6,
  "ShimSetting": [-7830, -8787, -2019, 718, 120, -76, -200, 113],
  "SliceThickness": 3,
  "SliceTiming": [0, 1.0325, 0.06, 1.095, 0.12, 1.155, 0.1825, 1.215, 0.2425, 1.2775, 0.3025, 1.3375, 0.365, 1.3975, 0.425, 1.46, 0.485, 1.52, 0.5475, 1.58, 0.6075, 1.6425, 0.6675, 1.7025, 0.73, 1.7625, 0.79, 1.825, 0.85, 1.885, 0.9125, 1.945, 0.9725],
  "SoftwareVersions": "syngo MR B15",
  "SpacingBetweenSlices": 4.05,
  "StationName": "MRC35119",
  "TaskName": "faceprocessing",
  "TotalReadoutTime": 0.0321303,
  "TxRefAmp": 337.525,
  "dcmmeta_affine": [
    [-3.0, 0.0, 0.0, 100.06779479980469],
    [0.0, 2.7912540435791016, -1.484329104423523, -50.150306701660156],
    [0.0, 1.0995030403137207, 3.768193006515503, -71.61522674560547],
    [0.0, 0.0, 0.0, 1.0]
],
  "dcmmeta_reorient_transform": [
    [0.0, -1.0, 0.0, 63.0],
    [1.0, 0.0, 0.0, 0.0],
    [0.0, 0.0, 1.0, 0.0],
    [0.0, 0.0, 0.0, 1.0]
],
  "dcmmeta_shape": [64, 64, 33, 210],
  "dcmmeta_slice_dim": 2,
  "dcmmeta_version": 0.6,
  "global": {
    "const": {
      "AcquisitionMatrix": [64, 0, 0, 64],
      "AngioFlag": "N",
      "BitsAllocated": 16,
      "BitsStored": 12,
      "Columns": 384,
      "EchoNumbers": 1,
      "EchoTime": 30.0,
      "EchoTrainLength": 1,
      "FlipAngle": 78.0,
      "HighBit": 11,
      "ImageOrientationPatient": [1.0, 0.0, 0.0, 0.0, 0.930418, -0.366501],
      "ImagePositionPatient": [-580.067797, -572.299334, 173.573946],
      "ImageType": [
        "ORIGINAL",
        "PRIMARY",
        "M",
        "ND",
        "MOSAIC"
],
      "ImagedNucleus": "1H",
      "ImagingFrequency": 123.251851,
      "InPlanePhaseEncodingDirection": "COL",
      "MRAcquisitionType": "2D",
      "MagneticFieldStrength": 3.0,
      "Manufacturer": "SIEMENS",
      "ManufacturerModelName": "TrioTim",
      "Modality": "MR",
      "NumberOfAverages": 1.0,
      "NumberOfPhaseEncodingSteps": 64,
      "PercentPhaseFieldOfView": 100.0,
      "PercentSampling": 100.0,
      "PerformedProcedureStepStartTime": "164313.515000",
      "PhotometricInterpretation": "MONOCHROME2",
      "PixelAspectRatio": [1, 1],
      "PixelBandwidth": 2230.0,
      "PixelRepresentation": 0,
      "PixelSpacing": [3.0, 3.0],
      "ProtocolName": "CBU_DWEPI_BOLD210",
      "RepetitionTime": 2000.0,
      "Rows": 384,
      "SAR": 0.139265,
      "SamplesPerPixel": 1,
      "ScanOptions": "FS",
      "ScanningSequence": "EP",
      "SequenceName": "*epfid2d1_64",
      "SequenceVariant": "SK",
      "SeriesDescription": "CBU_DWEPI_BOLD210",
      "SeriesNumber": 6,
      "SeriesTime": "171526.406000",
      "SliceLocation": -48.252169,
      "SliceThickness": 3.0,
      "SmallestImagePixelValue": 0,
      "SoftwareVersions": "syngo MR B15",
      "SpacingBetweenSlices": 4.05,
      "SpecificCharacterSet": "ISO_IR 100",
      "StudyID": "1",
      "StudyTime": "164313.453000",
      "TransmitCoilName": "Body",
      "VariableFlipAngleFlag": "N",
      "WindowCenterWidthExplanation": "Algo1",
      "dBdt": 0.0},
    "slices": {}
  },
  "time": {
    "samples": {
      "AcquisitionNumber": [1, 2, 3, 4, 5, 6, 7, 8, 9, 10, 11, 12, 13, 14, 15, 16, 17, 18, 19, 20, 21, 22, 23, 24, 25, 26, 27, 28, 29, 30, 31, 32, 33, 34, 35, 36, 37, 38, 39, 40, 41, 42, 43, 44, 45, 46, 47, 48, 49, 50, 51, 52, 53, 54, 55, 56, 57, 58, 59, 60, 61, 62, 63, 64, 65, 66, 67, 68, 69, 70, 71, 72, 73, 74, 75, 76, 77, 78, 79, 80, 81, 82, 83, 84, 85, 86, 87, 88, 89, 90, 91, 92, 93, 94, 95, 96, 97, 98, 99, 100, 101, 102, 103, 104, 105, 106, 107, 108, 109, 110, 111, 112, 113, 114, 115, 116, 117, 118, 119, 120, 121, 122, 123, 124, 125, 126, 127, 128, 129, 130, 131, 132, 133, 134, 135, 136, 137, 138, 139, 140, 141, 142, 143, 144, 145, 146, 147, 148, 149, 150, 151, 152, 153, 154, 155, 156, 157, 158, 159, 160, 161, 162, 163, 164, 165, 166, 167, 168, 169, 170, 171, 172, 173, 174, 175, 176, 177, 178, 179, 180, 181, 182, 183, 184, 185, 186, 187, 188, 189, 190, 191, 192, 193, 194, 195, 196, 197, 198, 199, 200, 201, 202, 203, 204, 205, 206, 207, 208, 209, 210],
      "AcquisitionTime": ["171522.397500", "171524.405000", "171526.412500", "171528.420000", "171530.427500", "171532.437500", "171534.445000", "171536.452500", "171538.460000", "171540.470000", "171542.477500", "171544.485000", "171546.492500", "171548.500000", "171550.510000", "171552.517500", "171554.525000", "171556.532500", "171558.540000", "171600.550000", "171602.557500", "171604.565000", "171606.572500", "171608.580000", "171610.590000", "171612.597500", "171614.605000", "171616.612500", "171618.622500", "171620.630000", "171622.637500", "171624.645000", "171626.652500", "171628.662500", "171630.670000", "171632.677500", "171634.685000", "171636.692500", "171638.702500", "171640.710000", "171642.717500", "171644.725000", "171646.735000", "171648.742500", "171650.750000", "171652.757500", "171654.765000", "171656.775000", "171658.782500", "171700.790000", "171702.797500", "171704.805000", "171706.815000", "171708.822500", "171710.830000", "171712.837500", "171714.847500", "171716.855000", "171718.862500", "171720.870000", "171722.877500", "171724.887500", "171726.895000", "171728.902500", "171730.910000", "171732.917500", "171734.927500", "171736.935000", "171738.942500", "171740.950000", "171742.957500", "171744.967500", "171746.975000", "171748.982500", "171750.990000", "171753.000000", "171755.007500", "171757.015000", "171759.022500", "171801.030000", "171803.040000", "171805.047500", "171807.055000", "171809.062500", "171811.070000", "171813.080000", "171815.087500", "171817.095000", "171819.102500", "171821.112500", "171823.120000", "171825.127500", "171827.135000", "171829.142500", "171831.152500", "171833.160000", "171835.167500", "171837.175000", "171839.182500", "171841.192500", "171843.200000", "171845.207500", "171847.215000", "171849.225000", "171851.232500", "171853.240000", "171855.247500", "171857.255000", "171859.265000", "171901.272500", "171903.280000", "171905.287500", "171907.295000", "171909.305000", "171911.312500", "171913.320000", "171915.327500", "171917.335000", "171919.345000", "171921.352500", "171923.360000", "171925.367500", "171927.377500", "171929.385000", "171931.392500", "171933.400000", "171935.407500", "171937.417500", "171939.425000", "171941.432500", "171943.440000", "171945.447500", "171947.457500", "171949.465000", "171951.472500", "171953.480000", "171955.490000", "171957.497500", "171959.505000", "172001.512500", "172003.520000", "172005.530000", "172007.537500", "172009.545000", "172011.552500", "172013.560000", "172015.570000", "172017.577500", "172019.585000", "172021.592500", "172023.602500", "172025.610000", "172027.617500", "172029.625000", "172031.632500", "172033.642500", "172035.650000", "172037.657500", "172039.665000", "172041.672500", "172043.682500", "172045.690000", "172047.697500", "172049.705000", "172051.712500", "172053.722500", "172055.730000", "172057.737500", "172059.745000", "172101.755000", "172103.762500", "172105.770000", "172107.777500", "172109.785000", "172111.795000", "172113.802500", "172115.810000", "172117.817500", "172119.825000", "172121.835000", "172123.842500", "172125.850000", "172127.857500", "172129.867500", "172131.875000", "172133.882500", "172135.890000", "172137.897500", "172139.907500", "172141.915000", "172143.922500", "172145.930000", "172147.937500", "172149.947500", "172151.955000", "172153.962500", "172155.970000", "172157.980000", "172159.987500", "172201.995000", "172204.002500", "172206.010000", "172208.020000", "172210.027500", "172212.035000", "172214.042500", "172216.050000", "172218.060000", "172220.067500", "172222.075000"],
      "ContentTime": ["171526.421000", "171528.406000", "171530.406000", "171532.406000", "171534.406000", "171536.406000", "171538.406000", "171540.406000", "171542.406000", "171544.406000", "171546.406000", "171548.406000", "171550.406000", "171552.406000", "171554.406000", "171556.406000", "171558.406000", "171600.406000", "171602.406000", "171604.406000", "171606.406000", "171608.406000", "171610.406000", "171612.406000", "171614.406000", "171616.406000", "171618.406000", "171620.406000", "171622.406000", "171624.406000", "171626.406000", "171628.406000", "171630.406000", "171632.406000", "171634.406000", "171636.406000", "171638.406000", "171640.406000", "171642.406000", "171644.406000", "171646.406000", "171648.406000", "171650.406000", "171652.406000", "171654.406000", "171656.406000", "171658.406000", "171700.406000", "171702.406000", "171704.406000", "171706.406000", "171708.406000", "171710.406000", "171712.406000", "171714.406000", "171716.406000", "171718.406000", "171720.406000", "171722.406000", "171724.406000", "171726.406000", "171728.406000", "171730.406000", "171732.406000", "171734.406000", "171736.406000", "171738.406000", "171740.406000", "171742.406000", "171744.406000", "171746.406000", "171748.406000", "171750.406000", "171752.406000", "171754.406000", "171756.406000", "171758.406000", "171800.406000", "171802.406000", "171804.406000", "171806.406000", "171808.406000", "171810.406000", "171812.406000", "171814.406000", "171816.406000", "171818.406000", "171820.406000", "171822.406000", "171824.406000", "171826.406000", "171828.406000", "171830.406000", "171832.406000", "171834.406000", "171836.406000", "171838.406000", "171840.406000", "171842.406000", "171844.406000", "171846.406000", "171848.406000", "171850.406000", "171852.406000", "171854.406000", "171856.406000", "171858.406000", "171900.406000", "171902.406000", "171904.406000", "171906.406000", "171908.406000", "171910.406000", "171912.406000", "171914.406000", "171916.406000", "171918.406000", "171920.406000", "171922.406000", "171924.406000", "171926.406000", "171928.406000", "171930.406000", "171932.406000", "171934.406000", "171936.406000", "171938.406000", "171940.406000", "171942.406000", "171944.406000", "171946.406000", "171948.406000", "171950.406000", "171952.406000", "171954.406000", "171956.406000", "171958.406000", "172000.406000", "172002.406000", "172004.406000", "172006.406000", "172008.406000", "172010.406000", "172012.406000", "172014.406000", "172016.406000", "172018.406000", "172020.406000", "172022.406000", "172024.406000", "172026.406000", "172028.406000", "172030.406000", "172032.406000", "172034.406000", "172036.406000", "172038.406000", "172040.406000", "172042.406000", "172044.406000", "172046.406000", "172048.406000", "172050.406000", "172052.406000", "172054.406000", "172056.406000", "172058.406000", "172100.406000", "172102.406000", "172104.406000", "172106.406000", "172108.406000", "172110.406000", "172112.406000", "172114.406000", "172116.406000", "172118.406000", "172120.406000", "172122.406000", "172124.406000", "172126.406000", "172128.406000", "172130.406000", "172132.406000", "172134.406000", "172136.406000", "172138.406000", "172140.406000", "172142.406000", "172144.406000", "172146.406000", "172148.406000", "172150.406000", "172152.406000", "172154.406000", "172156.406000", "172158.406000", "172200.406000", "172202.406000", "172204.406000", "172206.406000", "172208.406000", "172210.406000", "172212.406000", "172214.406000", "172216.406000", "172218.406000", "172220.406000", "172222.406000", "172223.968000"],
      "InstanceCreationTime": ["171526.421000", "171528.406000", "171530.406000", "171532.406000", "171534.406000", "171536.406000", "171538.406000", "171540.406000", "171542.406000", "171544.406000", "171546.406000", "171548.406000", "171550.406000", "171552.406000", "171554.406000", "171556.406000", "171558.406000", "171600.406000", "171602.406000", "171604.406000", "171606.406000", "171608.406000", "171610.406000", "171612.406000", "171614.406000", "171616.406000", "171618.406000", "171620.406000", "171622.406000", "171624.406000", "171626.406000", "171628.406000", "171630.406000", "171632.406000", "171634.406000", "171636.406000", "171638.406000", "171640.406000", "171642.406000", "171644.406000", "171646.406000", "171648.406000", "171650.406000", "171652.406000", "171654.406000", "171656.406000", "171658.406000", "171700.406000", "171702.406000", "171704.406000", "171706.406000", "171708.406000", "171710.406000", "171712.406000", "171714.406000", "171716.406000", "171718.406000", "171720.406000", "171722.406000", "171724.406000", "171726.406000", "171728.406000", "171730.406000", "171732.406000", "171734.406000", "171736.406000", "171738.406000", "171740.406000", "171742.406000", "171744.406000", "171746.406000", "171748.406000", "171750.406000", "171752.406000", "171754.406000", "171756.406000", "171758.406000", "171800.406000", "171802.406000", "171804.406000", "171806.406000", "171808.406000", "171810.406000", "171812.406000", "171814.406000", "171816.406000", "171818.406000", "171820.406000", "171822.406000", "171824.406000", "171826.406000", "171828.406000", "171830.406000", "171832.406000", "171834.406000", "171836.406000", "171838.406000", "171840.406000", "171842.406000", "171844.406000", "171846.406000", "171848.406000", "171850.406000", "171852.406000", "171854.406000", "171856.406000", "171858.406000", "171900.406000", "171902.406000", "171904.406000", "171906.406000", "171908.406000", "171910.406000", "171912.406000", "171914.406000", "171916.406000", "171918.406000", "171920.406000", "171922.406000", "171924.406000", "171926.406000", "171928.406000", "171930.406000", "171932.406000", "171934.406000", "171936.406000", "171938.406000", "171940.406000", "171942.406000", "171944.406000", "171946.406000", "171948.406000", "171950.406000", "171952.406000", "171954.406000", "171956.406000", "171958.406000", "172000.406000", "172002.406000", "172004.406000", "172006.406000", "172008.406000", "172010.406000", "172012.406000", "172014.406000", "172016.406000", "172018.406000", "172020.406000", "172022.406000", "172024.406000", "172026.406000", "172028.406000", "172030.406000", "172032.406000", "172034.406000", "172036.406000", "172038.406000", "172040.406000", "172042.406000", "172044.406000", "172046.406000", "172048.406000", "172050.406000", "172052.406000", "172054.406000", "172056.406000", "172058.406000", "172100.406000", "172102.406000", "172104.406000", "172106.406000", "172108.406000", "172110.406000", "172112.406000", "172114.406000", "172116.406000", "172118.406000", "172120.406000", "172122.406000", "172124.406000", "172126.406000", "172128.406000", "172130.406000", "172132.406000", "172134.406000", "172136.406000", "172138.406000", "172140.406000", "172142.406000", "172144.406000", "172146.406000", "172148.406000", "172150.406000", "172152.406000", "172154.406000", "172156.406000", "172158.406000", "172200.406000", "172202.406000", "172204.406000", "172206.406000", "172208.406000", "172210.406000", "172212.406000", "172214.406000", "172216.406000", "172218.406000", "172220.406000", "172222.406000", "172223.968000"],
      "InstanceNumber": [1, 2, 3, 4, 5, 6, 7, 8, 9, 10, 11, 12, 13, 14, 15, 16, 17, 18, 19, 20, 21, 22, 23, 24, 25, 26, 27, 28, 29, 30, 31, 32, 33, 34, 35, 36, 37, 38, 39, 40, 41, 42, 43, 44, 45, 46, 47, 48, 49, 50, 51, 52, 53, 54, 55, 56, 57, 58, 59, 60, 61, 62, 63, 64, 65, 66, 67, 68, 69, 70, 71, 72, 73, 74, 75, 76, 77, 78, 79, 80, 81, 82, 83, 84, 85, 86, 87, 88, 89, 90, 91, 92, 93, 94, 95, 96, 97, 98, 99, 100, 101, 102, 103, 104, 105, 106, 107, 108, 109, 110, 111, 112, 113, 114, 115, 116, 117, 118, 119, 120, 121, 122, 123, 124, 125, 126, 127, 128, 129, 130, 131, 132, 133, 134, 135, 136, 137, 138, 139, 140, 141, 142, 143, 144, 145, 146, 147, 148, 149, 150, 151, 152, 153, 154, 155, 156, 157, 158, 159, 160, 161, 162, 163, 164, 165, 166, 167, 168, 169, 170, 171, 172, 173, 174, 175, 176, 177, 178, 179, 180, 181, 182, 183, 184, 185, 186, 187, 188, 189, 190, 191, 192, 193, 194, 195, 196, 197, 198, 199, 200, 201, 202, 203, 204, 205, 206, 207, 208, 209, 210],
      "LargestImagePixelValue": [2029, 1978, 1949, 1903, 1899, 1899, 1895, 1934, 1895, 1861, 1921, 1899, 1903, 1928, 1911, 1884, 1897, 1911, 1875, 1877, 1847, 1944, 1876, 1908, 1929, 1880, 1886, 1895, 1883, 1903, 1895, 1885, 1883, 1892, 1918, 1897, 1879, 1907, 1889, 1889, 1924, 1897, 1914, 1922, 1909, 1926, 1896, 1891, 1896, 1883, 1897, 1899, 1863, 1919, 1907, 1891, 1885, 1879, 1894, 1884, 1890, 1880, 1881, 1893, 1874, 1903, 1920, 1922, 1922, 1922, 1927, 1901, 1897, 1926, 1909, 1926, 1927, 1903, 1902, 1902, 1902, 1901, 1906, 1906, 1901, 1908, 1932, 1879, 1928, 1915, 1890, 1899, 1910, 1889, 1867, 1905, 1909, 1877, 1886, 1884, 1906, 1938, 1900, 1880, 1901, 1915, 1891, 1914, 1901, 1876, 1882, 1878, 1879, 1908, 1882, 1886, 1909, 1915, 1899, 1900, 1906, 1896, 1880, 1875, 1908, 1894, 1886, 1893, 1888, 1885, 1891, 1889, 1893, 1891, 1895, 1902, 1910, 1889, 1905, 1908, 1878, 1914, 1894, 1890, 1886, 1912, 1942, 1912, 1915, 1908, 1911, 1894, 1926, 1890, 1939, 1949, 1931, 1911, 1923, 1909, 1962, 1928, 1917, 1920, 1905, 1918, 1921, 1919, 1925, 1900, 1940, 1947, 1911, 1925, 1941, 1930, 1920, 1914, 1940, 1931, 1919, 1940, 1899, 1905, 1922, 1922, 1931, 1934, 1934, 1969, 1919, 1941, 1890, 1907, 1938, 1932, 1922, 1950, 1908, 1940, 1943, 1924, 1925, 1943, 1946, 1918, 1928, 1920, 1933, 1927],
      "WindowCenter": [765.0, 761.0, 760.0, 759.0, 760.0, 760.0, 760.0, 760.0, 759.0, 759.0, 759.0, 759.0, 758.0, 758.0, 759.0, 759.0, 759.0, 759.0, 758.0, 759.0, 759.0, 759.0, 758.0, 758.0, 760.0, 761.0, 759.0, 759.0, 759.0, 758.0, 758.0, 758.0, 759.0, 759.0, 758.0, 757.0, 757.0, 758.0, 758.0, 758.0, 758.0, 757.0, 758.0, 759.0, 759.0, 759.0, 759.0, 759.0, 759.0, 759.0, 759.0, 760.0, 760.0, 761.0, 760.0, 759.0, 759.0, 759.0, 758.0, 758.0, 759.0, 759.0, 759.0, 759.0, 760.0, 760.0, 760.0, 760.0, 759.0, 759.0, 759.0, 761.0, 763.0, 762.0, 759.0, 759.0, 758.0, 758.0, 758.0, 760.0, 760.0, 760.0, 761.0, 761.0, 760.0, 760.0, 760.0, 760.0, 760.0, 759.0, 759.0, 759.0, 760.0, 759.0, 758.0, 758.0, 758.0, 758.0, 759.0, 759.0, 759.0, 761.0, 760.0, 759.0, 759.0, 759.0, 759.0, 759.0, 759.0, 758.0, 758.0, 759.0, 759.0, 759.0, 759.0, 758.0, 758.0, 758.0, 758.0, 758.0, 759.0, 758.0, 758.0, 759.0, 759.0, 760.0, 760.0, 761.0, 762.0, 760.0, 759.0, 759.0, 761.0, 764.0, 763.0, 762.0, 760.0, 760.0, 761.0, 762.0, 761.0, 761.0, 760.0, 760.0, 760.0, 760.0, 761.0, 760.0, 759.0, 758.0, 760.0, 761.0, 761.0, 760.0, 761.0, 764.0, 763.0, 763.0, 760.0, 759.0, 760.0, 761.0, 761.0, 762.0, 762.0, 761.0, 761.0, 760.0, 761.0, 760.0, 760.0, 760.0, 760.0, 761.0, 761.0, 761.0, 761.0, 761.0, 761.0, 760.0, 760.0, 760.0, 761.0, 762.0, 762.0, 761.0, 761.0, 760.0, 760.0, 760.0, 760.0, 761.0, 760.0, 759.0, 759.0, 759.0, 759.0, 760.0, 760.0, 760.0, 760.0, 760.0, 760.0, 761.0, 761.0, 761.0, 761.0, 762.0, 763.0, 762.0],
      "WindowWidth": [1613.0, 1604.0, 1600.0, 1599.0, 1600.0, 1601.0, 1601.0, 1602.0, 1600.0, 1599.0, 1599.0, 1598.0, 1596.0, 1597.0, 1598.0, 1598.0, 1599.0, 1599.0, 1597.0, 1598.0, 1599.0, 1599.0, 1597.0, 1597.0, 1602.0, 1603.0, 1599.0, 1598.0, 1598.0, 1597.0, 1597.0, 1597.0, 1599.0, 1598.0, 1597.0, 1595.0, 1594.0, 1595.0, 1597.0, 1595.0, 1596.0, 1594.0, 1597.0, 1600.0, 1599.0, 1599.0, 1599.0, 1599.0, 1599.0, 1598.0, 1598.0, 1600.0, 1602.0, 1604.0, 1601.0, 1599.0, 1597.0, 1598.0, 1597.0, 1597.0, 1598.0, 1599.0, 1599.0, 1599.0, 1601.0, 1600.0, 1601.0, 1600.0, 1599.0, 1598.0, 1598.0, 1605.0, 1607.0, 1605.0, 1600.0, 1598.0, 1597.0, 1596.0, 1597.0, 1600.0, 1601.0, 1601.0, 1603.0, 1603.0, 1602.0, 1601.0, 1602.0, 1600.0, 1600.0, 1600.0, 1599.0, 1599.0, 1601.0, 1599.0, 1597.0, 1597.0, 1596.0, 1597.0, 1597.0, 1598.0, 1599.0, 1604.0, 1601.0, 1599.0, 1597.0, 1597.0, 1597.0, 1598.0, 1598.0, 1597.0, 1597.0, 1598.0, 1598.0, 1600.0, 1599.0, 1597.0, 1596.0, 1597.0, 1596.0, 1597.0, 1598.0, 1597.0, 1596.0, 1599.0, 1600.0, 1601.0, 1602.0, 1604.0, 1605.0, 1602.0, 1600.0, 1600.0, 1605.0, 1611.0, 1608.0, 1605.0, 1601.0, 1600.0, 1603.0, 1605.0, 1603.0, 1602.0, 1601.0, 1601.0, 1600.0, 1600.0, 1602.0, 1600.0, 1597.0, 1597.0, 1601.0, 1602.0, 1603.0, 1602.0, 1602.0, 1610.0, 1609.0, 1607.0, 1601.0, 1599.0, 1601.0, 1603.0, 1604.0, 1606.0, 1605.0, 1603.0, 1602.0, 1602.0, 1603.0, 1601.0, 1601.0, 1601.0, 1602.0, 1603.0, 1603.0, 1602.0, 1602.0, 1604.0, 1603.0, 1602.0, 1601.0, 1601.0, 1602.0, 1605.0, 1606.0, 1604.0, 1603.0, 1601.0, 1601.0, 1602.0, 1601.0, 1603.0, 1601.0, 1600.0, 1599.0, 1599.0, 1599.0, 1601.0, 1600.0, 1600.0, 1601.0, 1602.0, 1602.0, 1603.0, 1604.0, 1602.0, 1602.0, 1606.0, 1609.0, 1605.0]
    },
    "slices": {}
  }
}