{
  "AcquisitionMatrixPE": 64,
  "AcquisitionNumber": 1,
  "AcquisitionTime": "17:53:36.540000",
  "BandwidthPerPixelPhaseEncode": 30.637,
  "BaseResolution": 64,
  "BidsGuess": [
    "func",
    "_acq-epfid2_dir-AP_run-11_bold"
],
  "CoilCombinationMethod": "Sum of Squares",
  "CoilString": "C:HEA;HEP",
  "ConversionSoftware": "dcm2niix",
  "ConversionSoftwareVersion": "v1.0.20240202",
  "DerivedVendorReportedEchoSpacing": 0.000510004,
  "DeviceSerialNumber": "35119",
  "DwellTime": 3.5e-06,
  "EchoTime": 0.03,
  "EffectiveEchoSpacing": 0.000510004,
  "FlipAngle": 78,
  "HeudiconvVersion": "1.1.6",
  "ImageComments": "V",
  "ImageOrientationPatientDICOM": [1, 0, 0, 0, 0.930418, -0.366501],
  "ImageOrientationText": "Tra>Cor(-21.5)",
  "ImageType": [
    "ORIGINAL",
    "PRIMARY",
    "M",
    "ND",
    "MOSAIC"
],
  "ImagingFrequency": 123.251851,
  "InPlanePhaseEncodingDirectionDICOM": "COL",
  "InstitutionAddress": "Chaucer Road  15,Cambridge,UK,GB,CB2 2EF",
  "InstitutionName": "MRC-CBU",
  "MRAcquisitionType": "2D",
  "MagneticFieldStrength": 3,
  "Manufacturer": "Siemens",
  "ManufacturersModelName": "TrioTim",
  "MatrixCoilMode": "SENSE",
  "Modality": "MR",
  "NonlinearGradientCorrection": false,
  "PartialFourier": 1,
  "PatientPosition": "HFS",
  "PercentPhaseFOV": 100,
  "PercentSampling": 100,
  "PhaseEncodingDirection": "j-",
  "PhaseEncodingSteps": 64,
  "PhaseResolution": 1,
  "PixelBandwidth": 2230,
  "ProcedureStepDescription": "CBU^Neuroimaging",
  "ProtocolName": "CBU_DWEPI_BOLD210",
  "PulseSequenceDetails": "%SiemensSeq%\\ep2d_bold",
  "ReceiveCoilName": "HeadMatrix",
  "ReconMatrixPE": 64,
  "RepetitionTime": 2,
  "SAR": 0.139265,
  "ScanOptions": "FS",
  "ScanningSequence": "EP",
  "SequenceName": "*epfid2d1_64",
  "SequenceVariant": "SK",
  "SeriesDescription": "CBU_DWEPI_BOLD210",
  "SeriesNumber": 11,
  "ShimSetting": [-7830, -8787, -2019, 718, 120, -76, -200, 113],
  "SliceThickness": 3,
  "SliceTiming": [0, 1.035, 0.0625, 1.095, 0.1225, 1.1575, 0.1825, 1.2175, 0.245, 1.2775, 0.305, 1.34, 0.365, 1.4, 0.4275, 1.46, 0.4875, 1.5225, 0.5475, 1.5825, 0.61, 1.6425, 0.67, 1.705, 0.73, 1.765, 0.7925, 1.825, 0.8525, 1.8875, 0.9125, 1.9475, 0.975],
  "SoftwareVersions": "syngo MR B15",
  "SpacingBetweenSlices": 4.05,
  "StationName": "MRC35119",
  "TaskName": "faceprocessing",
  "TotalReadoutTime": 0.0321303,
  "TxRefAmp": 337.525,
  "dcmmeta_affine": [
    [-3.0, 0.0, 0.0, 100.06779479980469],
    [0.0, 2.7912540435791016, -1.484329104423523, -50.150306701660156],
    [0.0, 1.0995030403137207, 3.768193006515503, -71.61522674560547],
    [0.0, 0.0, 0.0, 1.0]
],
  "dcmmeta_reorient_transform": [
    [0.0, -1.0, 0.0, 63.0],
    [1.0, 0.0, 0.0, 0.0],
    [0.0, 0.0, 1.0, 0.0],
    [0.0, 0.0, 0.0, 1.0]
],
  "dcmmeta_shape": [64, 64, 33, 210],
  "dcmmeta_slice_dim": 2,
  "dcmmeta_version": 0.6,
  "global": {
    "const": {
      "AcquisitionMatrix": [64, 0, 0, 64],
      "AngioFlag": "N",
      "BitsAllocated": 16,
      "BitsStored": 12,
      "Columns": 384,
      "EchoNumbers": 1,
      "EchoTime": 30.0,
      "EchoTrainLength": 1,
      "FlipAngle": 78.0,
      "HighBit": 11,
      "ImageOrientationPatient": [1.0, 0.0, 0.0, 0.0, 0.930418, -0.366501],
      "ImagePositionPatient": [-580.067797, -572.299334, 173.573946],
      "ImageType": [
        "ORIGINAL",
        "PRIMARY",
        "M",
        "ND",
        "MOSAIC"
],
      "ImagedNucleus": "1H",
      "ImagingFrequency": 123.251851,
      "InPlanePhaseEncodingDirection": "COL",
      "MRAcquisitionType": "2D",
      "MagneticFieldStrength": 3.0,
      "Manufacturer": "SIEMENS",
      "ManufacturerModelName": "TrioTim",
      "Modality": "MR",
      "NumberOfAverages": 1.0,
      "NumberOfPhaseEncodingSteps": 64,
      "PercentPhaseFieldOfView": 100.0,
      "PercentSampling": 100.0,
      "PerformedProcedureStepStartTime": "164313.515000",
      "PhotometricInterpretation": "MONOCHROME2",
      "PixelAspectRatio": [1, 1],
      "PixelBandwidth": 2230.0,
      "PixelRepresentation": 0,
      "PixelSpacing": [3.0, 3.0],
      "ProtocolName": "CBU_DWEPI_BOLD210",
      "RepetitionTime": 2000.0,
      "Rows": 384,
      "SAR": 0.139265,
      "SamplesPerPixel": 1,
      "ScanOptions": "FS",
      "ScanningSequence": "EP",
      "SequenceName": "*epfid2d1_64",
      "SequenceVariant": "SK",
      "SeriesDescription": "CBU_DWEPI_BOLD210",
      "SeriesNumber": 11,
      "SeriesTime": "175340.000000",
      "SliceLocation": -48.252169,
      "SliceThickness": 3.0,
      "SmallestImagePixelValue": 0,
      "SoftwareVersions": "syngo MR B15",
      "SpacingBetweenSlices": 4.05,
      "SpecificCharacterSet": "ISO_IR 100",
      "StudyID": "1",
      "StudyTime": "164313.453000",
      "TransmitCoilName": "Body",
      "VariableFlipAngleFlag": "N",
      "WindowCenterWidthExplanation": "Algo1",
      "dBdt": 0.0},
    "slices": {}
  },
  "time": {
    "samples": {
      "AcquisitionNumber": [1, 2, 3, 4, 5, 6, 7, 8, 9, 10, 11, 12, 13, 14, 15, 16, 17, 18, 19, 20, 21, 22, 23, 24, 25, 26, 27, 28, 29, 30, 31, 32, 33, 34, 35, 36, 37, 38, 39, 40, 41, 42, 43, 44, 45, 46, 47, 48, 49, 50, 51, 52, 53, 54, 55, 56, 57, 58, 59, 60, 61, 62, 63, 64, 65, 66, 67, 68, 69, 70, 71, 72, 73, 74, 75, 76, 77, 78, 79, 80, 81, 82, 83, 84, 85, 86, 87, 88, 89, 90, 91, 92, 93, 94, 95, 96, 97, 98, 99, 100, 101, 102, 103, 104, 105, 106, 107, 108, 109, 110, 111, 112, 113, 114, 115, 116, 117, 118, 119, 120, 121, 122, 123, 124, 125, 126, 127, 128, 129, 130, 131, 132, 133, 134, 135, 136, 137, 138, 139, 140, 141, 142, 143, 144, 145, 146, 147, 148, 149, 150, 151, 152, 153, 154, 155, 156, 157, 158, 159, 160, 161, 162, 163, 164, 165, 166, 167, 168, 169, 170, 171, 172, 173, 174, 175, 176, 177, 178, 179, 180, 181, 182, 183, 184, 185, 186, 187, 188, 189, 190, 191, 192, 193, 194, 195, 196, 197, 198, 199, 200, 201, 202, 203, 204, 205, 206, 207, 208, 209, 210],
      "AcquisitionTime": ["175336.540000", "175338.550000", "175340.557500", "175342.565000", "175344.572500", "175346.580000", "175348.590000", "175350.597500", "175352.605000", "175354.612500", "175356.620000", "175358.630000", "175400.637500", "175402.645000", "175404.652500", "175406.662500", "175408.670000", "175410.677500", "175412.685000", "175414.692500", "175416.702500", "175418.710000", "175420.717500", "175422.725000", "175424.732500", "175426.742500", "175428.750000", "175430.757500", "175432.765000", "175434.772500", "175436.782500", "175438.790000", "175440.797500", "175442.805000", "175444.815000", "175446.822500", "175448.830000", "175450.837500", "175452.845000", "175454.855000", "175456.862500", "175458.870000", "175500.877500", "175502.885000", "175504.895000", "175506.902500", "175508.910000", "175510.917500", "175512.927500", "175514.935000", "175516.942500", "175518.950000", "175520.957500", "175522.967500", "175524.975000", "175526.982500", "175528.990000", "175530.997500", "175533.007500", "175535.015000", "175537.022500", "175539.030000", "175541.040000", "175543.047500", "175545.055000", "175547.062500", "175549.070000", "175551.080000", "175553.087500", "175555.095000", "175557.102500", "175559.110000", "175601.120000", "175603.127500", "175605.135000", "175607.142500", "175609.150000", "175611.160000", "175613.167500", "175615.175000", "175617.182500", "175619.192500", "175621.200000", "175623.207500", "175625.215000", "175627.222500", "175629.232500", "175631.240000", "175633.247500", "175635.255000", "175637.262500", "175639.272500", "175641.280000", "175643.287500", "175645.295000", "175647.305000", "175649.312500", "175651.320000", "175653.327500", "175655.335000", "175657.345000", "175659.352500", "175701.360000", "175703.367500", "175705.375000", "175707.385000", "175709.392500", "175711.400000", "175713.407500", "175715.417500", "175717.425000", "175719.432500", "175721.440000", "175723.447500", "175725.457500", "175727.465000", "175729.472500", "175731.480000", "175733.487500", "175735.497500", "175737.505000", "175739.512500", "175741.520000", "175743.527500", "175745.537500", "175747.545000", "175749.552500", "175751.560000", "175753.570000", "175755.577500", "175757.585000", "175759.592500", "175801.600000", "175803.610000", "175805.617500", "175807.625000", "175809.632500", "175811.640000", "175813.650000", "175815.657500", "175817.665000", "175819.672500", "175821.682500", "175823.690000", "175825.697500", "175827.705000", "175829.712500", "175831.722500", "175833.730000", "175835.737500", "175837.745000", "175839.752500", "175841.762500", "175843.770000", "175845.777500", "175847.785000", "175849.795000", "175851.802500", "175853.810000", "175855.817500", "175857.825000", "175859.835000", "175901.842500", "175903.850000", "175905.857500", "175907.865000", "175909.875000", "175911.882500", "175913.890000", "175915.897500", "175917.905000", "175919.915000", "175921.922500", "175923.930000", "175925.937500", "175927.947500", "175929.955000", "175931.962500", "175933.970000", "175935.977500", "175937.987500", "175939.995000", "175942.002500", "175944.010000", "175946.017500", "175948.027500", "175950.035000", "175952.042500", "175954.050000", "175956.060000", "175958.067500", "180000.075000", "180002.082500", "180004.090000", "180006.100000", "180008.107500", "180010.115000", "180012.122500", "180014.130000", "180016.140000", "180018.147500", "180020.155000", "180022.162500", "180024.172500", "180026.180000", "180028.187500", "180030.195000", "180032.202500", "180034.212500", "180036.220000"],
      "ContentTime": ["175340.000000", "175341.984000", "175343.984000", "175345.984000", "175347.984000", "175349.984000", "175351.984000", "175353.984000", "175355.984000", "175357.984000", "175359.984000", "175401.984000", "175403.984000", "175405.984000", "175407.984000", "175409.984000", "175411.984000", "175413.984000", "175415.984000", "175417.984000", "175419.984000", "175421.984000", "175423.984000", "175425.984000", "175427.984000", "175429.984000", "175431.984000", "175433.984000", "175435.984000", "175437.984000", "175439.984000", "175441.984000", "175443.984000", "175445.984000", "175447.984000", "175449.984000", "175451.984000", "175453.984000", "175455.984000", "175457.984000", "175459.984000", "175501.984000", "175503.984000", "175505.984000", "175507.984000", "175509.984000", "175511.984000", "175513.984000", "175515.984000", "175517.984000", "175519.984000", "175521.984000", "175523.984000", "175525.984000", "175527.984000", "175529.984000", "175531.984000", "175533.984000", "175535.984000", "175537.984000", "175539.984000", "175541.984000", "175543.984000", "175545.984000", "175547.984000", "175549.984000", "175551.984000", "175553.984000", "175555.984000", "175557.984000", "175559.984000", "175601.984000", "175603.984000", "175606.000000", "175607.984000", "175609.984000", "175611.984000", "175613.984000", "175615.984000", "175617.984000", "175619.984000", "175621.984000", "175623.984000", "175625.984000", "175627.984000", "175629.984000", "175631.984000", "175633.984000", "175635.984000", "175637.984000", "175639.984000", "175641.984000", "175643.984000", "175645.984000", "175647.984000", "175649.984000", "175651.984000", "175653.984000", "175655.984000", "175657.984000", "175659.984000", "175701.984000", "175703.984000", "175705.984000", "175707.984000", "175709.984000", "175711.984000", "175713.984000", "175715.984000", "175717.984000", "175719.984000", "175721.984000", "175723.984000", "175725.984000", "175727.984000", "175729.984000", "175731.984000", "175733.984000", "175735.984000", "175737.984000", "175739.984000", "175741.984000", "175743.984000", "175745.984000", "175747.984000", "175749.984000", "175751.984000", "175753.984000", "175755.984000", "175757.984000", "175759.984000", "175801.984000", "175803.984000", "175805.984000", "175807.984000", "175809.984000", "175811.984000", "175813.984000", "175815.984000", "175817.984000", "175819.984000", "175821.984000", "175823.984000", "175825.984000", "175827.984000", "175829.984000", "175831.984000", "175833.984000", "175835.984000", "175837.984000", "175839.984000", "175841.984000", "175843.984000", "175845.984000", "175847.984000", "175849.984000", "175851.984000", "175853.984000", "175855.984000", "175857.984000", "175859.984000", "175901.984000", "175903.984000", "175905.984000", "175907.984000", "175909.984000", "175911.984000", "175913.984000", "175915.984000", "175917.984000", "175919.984000", "175921.984000", "175923.984000", "175925.984000", "175927.984000", "175929.984000", "175931.984000", "175933.984000", "175935.984000", "175937.984000", "175939.984000", "175941.984000", "175943.984000", "175945.984000", "175947.984000", "175949.984000", "175951.984000", "175953.984000", "175955.984000", "175957.984000", "175959.984000", "180001.984000", "180003.984000", "180005.984000", "180007.984000", "180009.984000", "180011.984000", "180013.984000", "180015.984000", "180017.984000", "180019.984000", "180021.984000", "180023.984000", "180025.984000", "180027.984000", "180029.984000", "180031.984000", "180033.984000", "180035.984000", "180037.734000"],
      "InstanceCreationTime": ["175340.000000", "175341.984000", "175343.984000", "175345.984000", "175347.984000", "175349.984000", "175351.984000", "175353.984000", "175355.984000", "175357.984000", "175359.984000", "175401.984000", "175403.984000", "175405.984000", "175407.984000", "175409.984000", "175411.984000", "175413.984000", "175415.984000", "175417.984000", "175419.984000", "175421.984000", "175423.984000", "175425.984000", "175427.984000", "175429.984000", "175431.984000", "175433.984000", "175435.984000", "175437.984000", "175439.984000", "175441.984000", "175443.984000", "175445.984000", "175447.984000", "175449.984000", "175451.984000", "175453.984000", "175455.984000", "175457.984000", "175459.984000", "175501.984000", "175503.984000", "175505.984000", "175507.984000", "175509.984000", "175511.984000", "175513.984000", "175515.984000", "175517.984000", "175519.984000", "175521.984000", "175523.984000", "175525.984000", "175527.984000", "175529.984000", "175531.984000", "175533.984000", "175535.984000", "175537.984000", "175539.984000", "175541.984000", "175543.984000", "175545.984000", "175547.984000", "175549.984000", "175551.984000", "175553.984000", "175555.984000", "175557.984000", "175559.984000", "175601.984000", "175603.984000", "175606.000000", "175607.984000", "175609.984000", "175611.984000", "175613.984000", "175615.984000", "175617.984000", "175619.984000", "175621.984000", "175623.984000", "175625.984000", "175627.984000", "175629.984000", "175631.984000", "175633.984000", "175635.984000", "175637.984000", "175639.984000", "175641.984000", "175643.984000", "175645.984000", "175647.984000", "175649.984000", "175651.984000", "175653.984000", "175655.984000", "175657.984000", "175659.984000", "175701.984000", "175703.984000", "175705.984000", "175707.984000", "175709.984000", "175711.984000", "175713.984000", "175715.984000", "175717.984000", "175719.984000", "175721.984000", "175723.984000", "175725.984000", "175727.984000", "175729.984000", "175731.984000", "175733.984000", "175735.984000", "175737.984000", "175739.984000", "175741.984000", "175743.984000", "175745.984000", "175747.984000", "175749.984000", "175751.984000", "175753.984000", "175755.984000", "175757.984000", "175759.984000", "175801.984000", "175803.984000", "175805.984000", "175807.984000", "175809.984000", "175811.984000", "175813.984000", "175815.984000", "175817.984000", "175819.984000", "175821.984000", "175823.984000", "175825.984000", "175827.984000", "175829.984000", "175831.984000", "175833.984000", "175835.984000", "175837.984000", "175839.984000", "175841.984000", "175843.984000", "175845.984000", "175847.984000", "175849.984000", "175851.984000", "175853.984000", "175855.984000", "175857.984000", "175859.984000", "175901.984000", "175903.984000", "175905.984000", "175907.984000", "175909.984000", "175911.984000", "175913.984000", "175915.984000", "175917.984000", "175919.984000", "175921.984000", "175923.984000", "175925.984000", "175927.984000", "175929.984000", "175931.984000", "175933.984000", "175935.984000", "175937.984000", "175939.984000", "175941.984000", "175943.984000", "175945.984000", "175947.984000", "175949.984000", "175951.984000", "175953.984000", "175955.984000", "175957.984000", "175959.984000", "180001.984000", "180003.984000", "180005.984000", "180007.984000", "180009.984000", "180011.984000", "180013.984000", "180015.984000", "180017.984000", "180019.984000", "180021.984000", "180023.984000", "180025.984000", "180027.984000", "180029.984000", "180031.984000", "180033.984000", "180035.984000", "180037.734000"],
      "InstanceNumber": [1, 2, 3, 4, 5, 6, 7, 8, 9, 10, 11, 12, 13, 14, 15, 16, 17, 18, 19, 20, 21, 22, 23, 24, 25, 26, 27, 28, 29, 30, 31, 32, 33, 34, 35, 36, 37, 38, 39, 40, 41, 42, 43, 44, 45, 46, 47, 48, 49, 50, 51, 52, 53, 54, 55, 56, 57, 58, 59, 60, 61, 62, 63, 64, 65, 66, 67, 68, 69, 70, 71, 72, 73, 74, 75, 76, 77, 78, 79, 80, 81, 82, 83, 84, 85, 86, 87, 88, 89, 90, 91, 92, 93, 94, 95, 96, 97, 98, 99, 100, 101, 102, 103, 104, 105, 106, 107, 108, 109, 110, 111, 112, 113, 114, 115, 116, 117, 118, 119, 120, 121, 122, 123, 124, 125, 126, 127, 128, 129, 130, 131, 132, 133, 134, 135, 136, 137, 138, 139, 140, 141, 142, 143, 144, 145, 146, 147, 148, 149, 150, 151, 152, 153, 154, 155, 156, 157, 158, 159, 160, 161, 162, 163, 164, 165, 166, 167, 168, 169, 170, 171, 172, 173, 174, 175, 176, 177, 178, 179, 180, 181, 182, 183, 184, 185, 186, 187, 188, 189, 190, 191, 192, 193, 194, 195, 196, 197, 198, 199, 200, 201, 202, 203, 204, 205, 206, 207, 208, 209, 210],
      "LargestImagePixelValue": [2137, 2032, 2028, 2031, 2028, 2002, 1984, 2004, 1998, 2002, 2014, 2007, 2020, 1965, 1994, 1999, 2012, 2010, 2003, 1985, 2005, 2010, 2030, 2004, 1998, 2001, 2018, 1985, 1993, 2036, 2036, 2012, 2014, 1999, 2010, 2030, 2010, 2021, 2040, 2027, 2025, 2035, 2025, 2004, 2025, 2029, 2034, 2015, 2026, 2006, 2025, 2017, 2019, 2038, 2001, 1962, 2001, 2011, 1989, 2043, 2019, 2015, 2043, 2023, 2010, 2019, 2035, 2043, 2042, 2036, 2013, 2006, 2002, 2007, 2030, 2002, 2015, 2035, 2037, 2015, 2022, 2029, 2016, 2025, 2022, 2012, 2017, 2025, 2034, 2019, 2032, 2007, 2032, 2016, 2022, 1996, 2037, 2037, 2030, 2035, 2023, 2012, 2010, 2022, 2048, 2060, 2027, 2037, 2030, 2048, 2051, 2024, 2028, 2003, 2024, 2022, 2001, 2023, 2007, 2020, 1997, 2017, 2004, 2001, 1998, 1999, 2024, 2044, 2033, 1986, 2024, 2022, 2011, 2031, 1984, 2026, 2010, 2001, 2021, 2016, 2024, 2024, 2025, 2007, 2024, 2002, 2007, 2016, 2001, 2008, 2025, 2004, 2025, 2023, 2020, 2020, 1999, 1990, 2006, 1994, 1987, 1978, 2019, 2005, 2019, 1993, 2015, 2003, 2004, 1993, 2004, 2023, 1996, 2018, 2000, 1972, 2010, 1999, 2017, 1977, 1994, 1999, 2012, 1986, 2004, 2017, 2013, 2009, 2014, 1994, 1999, 1998, 1994, 1984, 1966, 2015, 2020, 2004, 1998, 1998, 1997, 2022, 2002, 2010, 2001, 2020, 2011, 2010, 1955, 1973],
      "WindowCenter": [770.0, 766.0, 764.0, 764.0, 764.0, 765.0, 765.0, 765.0, 764.0, 766.0, 767.0, 767.0, 765.0, 764.0, 765.0, 766.0, 765.0, 765.0, 766.0, 766.0, 766.0, 766.0, 766.0, 765.0, 765.0, 765.0, 765.0, 765.0, 765.0, 764.0, 764.0, 764.0, 765.0, 765.0, 764.0, 764.0, 764.0, 764.0, 764.0, 764.0, 764.0, 764.0, 765.0, 765.0, 764.0, 763.0, 763.0, 764.0, 767.0, 766.0, 764.0, 764.0, 763.0, 765.0, 766.0, 765.0, 765.0, 765.0, 765.0, 766.0, 765.0, 765.0, 765.0, 765.0, 766.0, 766.0, 766.0, 765.0, 765.0, 765.0, 765.0, 766.0, 766.0, 767.0, 767.0, 765.0, 764.0, 764.0, 765.0, 765.0, 765.0, 764.0, 764.0, 764.0, 764.0, 765.0, 765.0, 765.0, 765.0, 765.0, 765.0, 765.0, 766.0, 766.0, 765.0, 764.0, 765.0, 766.0, 766.0, 766.0, 765.0, 765.0, 766.0, 766.0, 768.0, 767.0, 766.0, 765.0, 764.0, 764.0, 764.0, 766.0, 767.0, 767.0, 766.0, 766.0, 766.0, 767.0, 766.0, 766.0, 766.0, 767.0, 767.0, 767.0, 767.0, 766.0, 765.0, 766.0, 766.0, 766.0, 766.0, 766.0, 766.0, 766.0, 766.0, 766.0, 765.0, 764.0, 764.0, 765.0, 766.0, 766.0, 765.0, 765.0, 765.0, 765.0, 765.0, 766.0, 765.0, 765.0, 766.0, 766.0, 765.0, 765.0, 765.0, 766.0, 767.0, 767.0, 766.0, 764.0, 764.0, 765.0, 766.0, 765.0, 764.0, 764.0, 765.0, 766.0, 765.0, 765.0, 765.0, 765.0, 765.0, 766.0, 767.0, 766.0, 766.0, 766.0, 766.0, 766.0, 767.0, 766.0, 767.0, 767.0, 766.0, 766.0, 765.0, 764.0, 765.0, 765.0, 765.0, 767.0, 768.0, 767.0, 766.0, 766.0, 765.0, 765.0, 765.0, 766.0, 766.0, 767.0, 766.0, 766.0, 765.0, 766.0, 767.0, 767.0, 768.0, 770.0],
      "WindowWidth": [1627.0, 1615.0, 1610.0, 1610.0, 1611.0, 1613.0, 1613.0, 1612.0, 1611.0, 1615.0, 1619.0, 1617.0, 1613.0, 1611.0, 1613.0, 1615.0, 1614.0, 1614.0, 1615.0, 1616.0, 1615.0, 1614.0, 1614.0, 1613.0, 1613.0, 1613.0, 1613.0, 1612.0, 1613.0, 1612.0, 1611.0, 1612.0, 1612.0, 1612.0, 1612.0, 1612.0, 1612.0, 1611.0, 1610.0, 1611.0, 1611.0, 1612.0, 1614.0, 1612.0, 1610.0, 1609.0, 1610.0, 1612.0, 1618.0, 1615.0, 1611.0, 1610.0, 1610.0, 1614.0, 1616.0, 1614.0, 1613.0, 1614.0, 1614.0, 1616.0, 1614.0, 1613.0, 1614.0, 1614.0, 1615.0, 1615.0, 1614.0, 1613.0, 1613.0, 1613.0, 1614.0, 1615.0, 1615.0, 1617.0, 1617.0, 1614.0, 1612.0, 1611.0, 1613.0, 1614.0, 1612.0, 1610.0, 1611.0, 1611.0, 1612.0, 1612.0, 1613.0, 1612.0, 1612.0, 1612.0, 1612.0, 1614.0, 1615.0, 1615.0, 1614.0, 1611.0, 1613.0, 1616.0, 1616.0, 1614.0, 1613.0, 1614.0, 1617.0, 1616.0, 1621.0, 1619.0, 1617.0, 1613.0, 1611.0, 1610.0, 1611.0, 1615.0, 1619.0, 1616.0, 1615.0, 1615.0, 1616.0, 1616.0, 1616.0, 1615.0, 1616.0, 1616.0, 1616.0, 1617.0, 1617.0, 1615.0, 1614.0, 1615.0, 1615.0, 1615.0, 1615.0, 1616.0, 1615.0, 1615.0, 1616.0, 1615.0, 1613.0, 1610.0, 1611.0, 1613.0, 1615.0, 1614.0, 1613.0, 1613.0, 1613.0, 1613.0, 1614.0, 1614.0, 1614.0, 1614.0, 1616.0, 1615.0, 1613.0, 1613.0, 1613.0, 1616.0, 1618.0, 1619.0, 1614.0, 1611.0, 1611.0, 1614.0, 1615.0, 1612.0, 1612.0, 1611.0, 1613.0, 1615.0, 1613.0, 1613.0, 1613.0, 1613.0, 1614.0, 1615.0, 1617.0, 1616.0, 1615.0, 1614.0, 1615.0, 1616.0, 1617.0, 1615.0, 1618.0, 1618.0, 1616.0, 1614.0, 1613.0, 1611.0, 1613.0, 1612.0, 1613.0, 1618.0, 1620.0, 1618.0, 1616.0, 1614.0, 1613.0, 1612.0, 1612.0, 1615.0, 1616.0, 1617.0, 1615.0, 1614.0, 1613.0, 1615.0, 1617.0, 1618.0, 1619.0, 1626.0]
    },
    "slices": {}
  }
}