{
  "AcquisitionMatrixPE": 64,
  "AcquisitionNumber": 1,
  "AcquisitionTime": "17:46:9.912500",
  "BandwidthPerPixelPhaseEncode": 30.637,
  "BaseResolution": 64,
  "BidsGuess": [
    "func",
    "_acq-epfid2_dir-AP_run-10_bold"
],
  "CoilCombinationMethod": "Sum of Squares",
  "CoilString": "C:HEA;HEP",
  "ConversionSoftware": "dcm2niix",
  "ConversionSoftwareVersion": "v1.0.20240202",
  "DerivedVendorReportedEchoSpacing": 0.000510004,
  "DeviceSerialNumber": "35119",
  "DwellTime": 3.5e-06,
  "EchoTime": 0.03,
  "EffectiveEchoSpacing": 0.000510004,
  "FlipAngle": 78,
  "HeudiconvVersion": "1.1.6",
  "ImageComments": "V",
  "ImageOrientationPatientDICOM": [1, 0, 0, 0, 0.930418, -0.366501],
  "ImageOrientationText": "Tra>Cor(-21.5)",
  "ImageType": [
    "ORIGINAL",
    "PRIMARY",
    "M",
    "ND",
    "MOSAIC"
],
  "ImagingFrequency": 123.251851,
  "InPlanePhaseEncodingDirectionDICOM": "COL",
  "InstitutionAddress": "Chaucer Road  15,Cambridge,UK,GB,CB2 2EF",
  "InstitutionName": "MRC-CBU",
  "MRAcquisitionType": "2D",
  "MagneticFieldStrength": 3,
  "Manufacturer": "Siemens",
  "ManufacturersModelName": "TrioTim",
  "MatrixCoilMode": "SENSE",
  "Modality": "MR",
  "NonlinearGradientCorrection": false,
  "PartialFourier": 1,
  "PatientPosition": "HFS",
  "PercentPhaseFOV": 100,
  "PercentSampling": 100,
  "PhaseEncodingDirection": "j-",
  "PhaseEncodingSteps": 64,
  "PhaseResolution": 1,
  "PixelBandwidth": 2230,
  "ProcedureStepDescription": "CBU^Neuroimaging",
  "ProtocolName": "CBU_DWEPI_BOLD210",
  "PulseSequenceDetails": "%SiemensSeq%\\ep2d_bold",
  "ReceiveCoilName": "HeadMatrix",
  "ReconMatrixPE": 64,
  "RepetitionTime": 2,
  "SAR": 0.139265,
  "ScanOptions": "FS",
  "ScanningSequence": "EP",
  "SequenceName": "*epfid2d1_64",
  "SequenceVariant": "SK",
  "SeriesDescription": "CBU_DWEPI_BOLD210",
  "SeriesNumber": 10,
  "ShimSetting": [-7830, -8787, -2019, 718, 120, -76, -200, 113],
  "SliceThickness": 3,
  "SliceTiming": [0, 1.035, 0.06, 1.095, 0.1225, 1.155, 0.1825, 1.2175, 0.2425, 1.2775, 0.305, 1.3375, 0.365, 1.4, 0.425, 1.46, 0.4875, 1.52, 0.5475, 1.5825, 0.6075, 1.6425, 0.67, 1.7025, 0.73, 1.765, 0.79, 1.825, 0.8525, 1.885, 0.9125, 1.9475, 0.9725],
  "SoftwareVersions": "syngo MR B15",
  "SpacingBetweenSlices": 4.05,
  "StationName": "MRC35119",
  "TaskName": "faceprocessing",
  "TotalReadoutTime": 0.0321303,
  "TxRefAmp": 337.525,
  "dcmmeta_affine": [
    [-3.0, 0.0, 0.0, 100.06779479980469],
    [0.0, 2.7912540435791016, -1.484329104423523, -50.150306701660156],
    [0.0, 1.0995030403137207, 3.768193006515503, -71.61522674560547],
    [0.0, 0.0, 0.0, 1.0]
],
  "dcmmeta_reorient_transform": [
    [0.0, -1.0, 0.0, 63.0],
    [1.0, 0.0, 0.0, 0.0],
    [0.0, 0.0, 1.0, 0.0],
    [0.0, 0.0, 0.0, 1.0]
],
  "dcmmeta_shape": [64, 64, 33, 210],
  "dcmmeta_slice_dim": 2,
  "dcmmeta_version": 0.6,
  "global": {
    "const": {
      "AcquisitionMatrix": [64, 0, 0, 64],
      "AngioFlag": "N",
      "BitsAllocated": 16,
      "BitsStored": 12,
      "Columns": 384,
      "EchoNumbers": 1,
      "EchoTime": 30.0,
      "EchoTrainLength": 1,
      "FlipAngle": 78.0,
      "HighBit": 11,
      "ImageOrientationPatient": [1.0, 0.0, 0.0, 0.0, 0.930418, -0.366501],
      "ImagePositionPatient": [-580.067797, -572.299334, 173.573946],
      "ImageType": [
        "ORIGINAL",
        "PRIMARY",
        "M",
        "ND",
        "MOSAIC"
],
      "ImagedNucleus": "1H",
      "ImagingFrequency": 123.251851,
      "InPlanePhaseEncodingDirection": "COL",
      "MRAcquisitionType": "2D",
      "MagneticFieldStrength": 3.0,
      "Manufacturer": "SIEMENS",
      "ManufacturerModelName": "TrioTim",
      "Modality": "MR",
      "NumberOfAverages": 1.0,
      "NumberOfPhaseEncodingSteps": 64,
      "PercentPhaseFieldOfView": 100.0,
      "PercentSampling": 100.0,
      "PerformedProcedureStepStartTime": "164313.515000",
      "PhotometricInterpretation": "MONOCHROME2",
      "PixelAspectRatio": [1, 1],
      "PixelBandwidth": 2230.0,
      "PixelRepresentation": 0,
      "PixelSpacing": [3.0, 3.0],
      "ProtocolName": "CBU_DWEPI_BOLD210",
      "RepetitionTime": 2000.0,
      "Rows": 384,
      "SAR": 0.139265,
      "SamplesPerPixel": 1,
      "ScanOptions": "FS",
      "ScanningSequence": "EP",
      "SequenceName": "*epfid2d1_64",
      "SequenceVariant": "SK",
      "SeriesDescription": "CBU_DWEPI_BOLD210",
      "SeriesNumber": 10,
      "SeriesTime": "174613.593000",
      "SliceLocation": -48.252169,
      "SliceThickness": 3.0,
      "SmallestImagePixelValue": 0,
      "SoftwareVersions": "syngo MR B15",
      "SpacingBetweenSlices": 4.05,
      "SpecificCharacterSet": "ISO_IR 100",
      "StudyID": "1",
      "StudyTime": "164313.453000",
      "TransmitCoilName": "Body",
      "VariableFlipAngleFlag": "N",
      "WindowCenterWidthExplanation": "Algo1",
      "dBdt": 0.0},
    "slices": {}
  },
  "time": {
    "samples": {
      "AcquisitionNumber": [1, 2, 3, 4, 5, 6, 7, 8, 9, 10, 11, 12, 13, 14, 15, 16, 17, 18, 19, 20, 21, 22, 23, 24, 25, 26, 27, 28, 29, 30, 31, 32, 33, 34, 35, 36, 37, 38, 39, 40, 41, 42, 43, 44, 45, 46, 47, 48, 49, 50, 51, 52, 53, 54, 55, 56, 57, 58, 59, 60, 61, 62, 63, 64, 65, 66, 67, 68, 69, 70, 71, 72, 73, 74, 75, 76, 77, 78, 79, 80, 81, 82, 83, 84, 85, 86, 87, 88, 89, 90, 91, 92, 93, 94, 95, 96, 97, 98, 99, 100, 101, 102, 103, 104, 105, 106, 107, 108, 109, 110, 111, 112, 113, 114, 115, 116, 117, 118, 119, 120, 121, 122, 123, 124, 125, 126, 127, 128, 129, 130, 131, 132, 133, 134, 135, 136, 137, 138, 139, 140, 141, 142, 143, 144, 145, 146, 147, 148, 149, 150, 151, 152, 153, 154, 155, 156, 157, 158, 159, 160, 161, 162, 163, 164, 165, 166, 167, 168, 169, 170, 171, 172, 173, 174, 175, 176, 177, 178, 179, 180, 181, 182, 183, 184, 185, 186, 187, 188, 189, 190, 191, 192, 193, 194, 195, 196, 197, 198, 199, 200, 201, 202, 203, 204, 205, 206, 207, 208, 209, 210],
      "AcquisitionTime": ["174609.912500", "174611.920000", "174613.927500", "174615.937500", "174617.945000", "174619.952500", "174621.960000", "174623.967500", "174625.977500", "174627.985000", "174629.992500", "174632.000000", "174634.007500", "174636.017500", "174638.025000", "174640.032500", "174642.040000", "174644.050000", "174646.057500", "174648.065000", "174650.072500", "174652.080000", "174654.090000", "174656.097500", "174658.105000", "174700.112500", "174702.120000", "174704.130000", "174706.137500", "174708.145000", "174710.152500", "174712.162500", "174714.170000", "174716.177500", "174718.185000", "174720.192500", "174722.202500", "174724.210000", "174726.217500", "174728.225000", "174730.232500", "174732.242500", "174734.250000", "174736.257500", "174738.265000", "174740.272500", "174742.282500", "174744.290000", "174746.297500", "174748.305000", "174750.315000", "174752.322500", "174754.330000", "174756.337500", "174758.345000", "174800.355000", "174802.362500", "174804.370000", "174806.377500", "174808.385000", "174810.395000", "174812.402500", "174814.410000", "174816.417500", "174818.427500", "174820.435000", "174822.442500", "174824.450000", "174826.457500", "174828.467500", "174830.475000", "174832.482500", "174834.490000", "174836.497500", "174838.507500", "174840.515000", "174842.522500", "174844.530000", "174846.540000", "174848.547500", "174850.555000", "174852.562500", "174854.570000", "174856.580000", "174858.587500", "174900.595000", "174902.602500", "174904.610000", "174906.620000", "174908.627500", "174910.635000", "174912.642500", "174914.650000", "174916.660000", "174918.667500", "174920.675000", "174922.682500", "174924.692500", "174926.700000", "174928.707500", "174930.715000", "174932.722500", "174934.732500", "174936.740000", "174938.747500", "174940.755000", "174942.762500", "174944.772500", "174946.780000", "174948.787500", "174950.795000", "174952.805000", "174954.812500", "174956.820000", "174958.827500", "175000.835000", "175002.845000", "175004.852500", "175006.860000", "175008.867500", "175010.875000", "175012.885000", "175014.892500", "175016.900000", "175018.907500", "175020.917500", "175022.925000", "175024.932500", "175026.940000", "175028.947500", "175030.957500", "175032.965000", "175034.972500", "175036.980000", "175038.987500", "175040.997500", "175043.005000", "175045.012500", "175047.020000", "175049.027500", "175051.037500", "175053.045000", "175055.052500", "175057.060000", "175059.070000", "175101.077500", "175103.085000", "175105.092500", "175107.100000", "175109.110000", "175111.117500", "175113.125000", "175115.132500", "175117.140000", "175119.150000", "175121.157500", "175123.165000", "175125.172500", "175127.182500", "175129.190000", "175131.197500", "175133.205000", "175135.212500", "175137.222500", "175139.230000", "175141.237500", "175143.245000", "175145.252500", "175147.262500", "175149.270000", "175151.277500", "175153.285000", "175155.295000", "175157.302500", "175159.310000", "175201.317500", "175203.325000", "175205.335000", "175207.342500", "175209.350000", "175211.357500", "175213.365000", "175215.375000", "175217.382500", "175219.390000", "175221.397500", "175223.405000", "175225.415000", "175227.422500", "175229.430000", "175231.437500", "175233.447500", "175235.455000", "175237.462500", "175239.470000", "175241.477500", "175243.487500", "175245.495000", "175247.502500", "175249.510000", "175251.517500", "175253.527500", "175255.535000", "175257.542500", "175259.550000", "175301.560000", "175303.567500", "175305.575000", "175307.582500", "175309.590000"],
      "ContentTime": ["174613.609000", "174615.593000", "174617.593000", "174619.593000", "174621.593000", "174623.593000", "174625.593000", "174627.593000", "174629.593000", "174631.593000", "174633.593000", "174635.593000", "174637.593000", "174639.593000", "174641.593000", "174643.593000", "174645.593000", "174647.593000", "174649.593000", "174651.593000", "174653.593000", "174655.593000", "174657.593000", "174659.593000", "174701.593000", "174703.593000", "174705.593000", "174707.593000", "174709.593000", "174711.593000", "174713.593000", "174715.593000", "174717.593000", "174719.593000", "174721.593000", "174723.593000", "174725.593000", "174727.593000", "174729.593000", "174731.593000", "174733.593000", "174735.593000", "174737.593000", "174739.593000", "174741.593000", "174743.593000", "174745.593000", "174747.593000", "174749.593000", "174751.593000", "174753.593000", "174755.593000", "174757.593000", "174759.593000", "174801.593000", "174803.593000", "174805.593000", "174807.593000", "174809.593000", "174811.593000", "174813.593000", "174815.593000", "174817.593000", "174819.593000", "174821.593000", "174823.593000", "174825.593000", "174827.593000", "174829.593000", "174831.593000", "174833.593000", "174835.593000", "174837.593000", "174839.593000", "174841.593000", "174843.593000", "174845.593000", "174847.593000", "174849.593000", "174851.593000", "174853.593000", "174855.593000", "174857.593000", "174859.593000", "174901.593000", "174903.593000", "174905.593000", "174907.593000", "174909.593000", "174911.593000", "174913.593000", "174915.593000", "174917.593000", "174919.593000", "174921.593000", "174923.593000", "174925.593000", "174927.593000", "174929.593000", "174931.593000", "174933.593000", "174935.593000", "174937.593000", "174939.593000", "174941.593000", "174943.593000", "174945.593000", "174947.593000", "174949.593000", "174951.593000", "174953.593000", "174955.593000", "174957.593000", "174959.593000", "175001.593000", "175003.593000", "175005.593000", "175007.593000", "175009.593000", "175011.593000", "175013.593000", "175015.593000", "175017.593000", "175019.593000", "175021.593000", "175023.593000", "175025.593000", "175027.593000", "175029.593000", "175031.593000", "175033.593000", "175035.593000", "175037.593000", "175039.593000", "175041.593000", "175043.593000", "175045.593000", "175047.593000", "175049.593000", "175051.593000", "175053.593000", "175055.593000", "175057.593000", "175059.593000", "175101.593000", "175103.593000", "175105.593000", "175107.593000", "175109.593000", "175111.593000", "175113.593000", "175115.593000", "175117.593000", "175119.593000", "175121.593000", "175123.593000", "175125.593000", "175127.593000", "175129.593000", "175131.593000", "175133.593000", "175135.593000", "175137.593000", "175139.593000", "175141.593000", "175143.593000", "175145.593000", "175147.593000", "175149.593000", "175151.593000", "175153.593000", "175155.593000", "175157.593000", "175159.593000", "175201.593000", "175203.593000", "175205.593000", "175207.593000", "175209.593000", "175211.593000", "175213.593000", "175215.593000", "175217.593000", "175219.593000", "175221.593000", "175223.593000", "175225.593000", "175227.593000", "175229.593000", "175231.593000", "175233.593000", "175235.593000", "175237.593000", "175239.593000", "175241.593000", "175243.593000", "175245.593000", "175247.593000", "175249.593000", "175251.593000", "175253.593000", "175255.593000", "175257.593000", "175259.593000", "175301.593000", "175303.593000", "175305.593000", "175307.593000", "175309.593000", "175311.187000"],
      "InstanceCreationTime": ["174613.609000", "174615.593000", "174617.593000", "174619.593000", "174621.593000", "174623.593000", "174625.593000", "174627.593000", "174629.593000", "174631.593000", "174633.593000", "174635.593000", "174637.593000", "174639.593000", "174641.593000", "174643.593000", "174645.593000", "174647.593000", "174649.593000", "174651.593000", "174653.593000", "174655.593000", "174657.593000", "174659.593000", "174701.593000", "174703.593000", "174705.593000", "174707.593000", "174709.593000", "174711.593000", "174713.593000", "174715.593000", "174717.593000", "174719.593000", "174721.593000", "174723.593000", "174725.593000", "174727.593000", "174729.593000", "174731.593000", "174733.593000", "174735.593000", "174737.593000", "174739.593000", "174741.593000", "174743.593000", "174745.593000", "174747.593000", "174749.593000", "174751.593000", "174753.593000", "174755.593000", "174757.593000", "174759.593000", "174801.593000", "174803.593000", "174805.593000", "174807.593000", "174809.593000", "174811.593000", "174813.593000", "174815.593000", "174817.593000", "174819.593000", "174821.593000", "174823.593000", "174825.593000", "174827.593000", "174829.593000", "174831.593000", "174833.593000", "174835.593000", "174837.593000", "174839.593000", "174841.593000", "174843.593000", "174845.593000", "174847.593000", "174849.593000", "174851.593000", "174853.593000", "174855.593000", "174857.593000", "174859.593000", "174901.593000", "174903.593000", "174905.593000", "174907.593000", "174909.593000", "174911.593000", "174913.593000", "174915.593000", "174917.593000", "174919.593000", "174921.593000", "174923.593000", "174925.593000", "174927.593000", "174929.593000", "174931.593000", "174933.593000", "174935.593000", "174937.593000", "174939.593000", "174941.593000", "174943.593000", "174945.593000", "174947.593000", "174949.593000", "174951.593000", "174953.593000", "174955.593000", "174957.593000", "174959.593000", "175001.593000", "175003.593000", "175005.593000", "175007.593000", "175009.593000", "175011.593000", "175013.593000", "175015.593000", "175017.593000", "175019.593000", "175021.593000", "175023.593000", "175025.593000", "175027.593000", "175029.593000", "175031.593000", "175033.593000", "175035.593000", "175037.593000", "175039.593000", "175041.593000", "175043.593000", "175045.593000", "175047.593000", "175049.593000", "175051.593000", "175053.593000", "175055.593000", "175057.593000", "175059.593000", "175101.593000", "175103.593000", "175105.593000", "175107.593000", "175109.593000", "175111.593000", "175113.593000", "175115.593000", "175117.593000", "175119.593000", "175121.593000", "175123.593000", "175125.593000", "175127.593000", "175129.593000", "175131.593000", "175133.593000", "175135.593000", "175137.593000", "175139.593000", "175141.593000", "175143.593000", "175145.593000", "175147.593000", "175149.593000", "175151.593000", "175153.593000", "175155.593000", "175157.593000", "175159.593000", "175201.593000", "175203.593000", "175205.593000", "175207.593000", "175209.593000", "175211.593000", "175213.593000", "175215.593000", "175217.593000", "175219.593000", "175221.593000", "175223.593000", "175225.593000", "175227.593000", "175229.593000", "175231.593000", "175233.593000", "175235.593000", "175237.593000", "175239.593000", "175241.593000", "175243.593000", "175245.593000", "175247.593000", "175249.593000", "175251.593000", "175253.593000", "175255.593000", "175257.593000", "175259.593000", "175301.593000", "175303.593000", "175305.593000", "175307.593000", "175309.593000", "175311.187000"],
      "InstanceNumber": [1, 2, 3, 4, 5, 6, 7, 8, 9, 10, 11, 12, 13, 14, 15, 16, 17, 18, 19, 20, 21, 22, 23, 24, 25, 26, 27, 28, 29, 30, 31, 32, 33, 34, 35, 36, 37, 38, 39, 40, 41, 42, 43, 44, 45, 46, 47, 48, 49, 50, 51, 52, 53, 54, 55, 56, 57, 58, 59, 60, 61, 62, 63, 64, 65, 66, 67, 68, 69, 70, 71, 72, 73, 74, 75, 76, 77, 78, 79, 80, 81, 82, 83, 84, 85, 86, 87, 88, 89, 90, 91, 92, 93, 94, 95, 96, 97, 98, 99, 100, 101, 102, 103, 104, 105, 106, 107, 108, 109, 110, 111, 112, 113, 114, 115, 116, 117, 118, 119, 120, 121, 122, 123, 124, 125, 126, 127, 128, 129, 130, 131, 132, 133, 134, 135, 136, 137, 138, 139, 140, 141, 142, 143, 144, 145, 146, 147, 148, 149, 150, 151, 152, 153, 154, 155, 156, 157, 158, 159, 160, 161, 162, 163, 164, 165, 166, 167, 168, 169, 170, 171, 172, 173, 174, 175, 176, 177, 178, 179, 180, 181, 182, 183, 184, 185, 186, 187, 188, 189, 190, 191, 192, 193, 194, 195, 196, 197, 198, 199, 200, 201, 202, 203, 204, 205, 206, 207, 208, 209, 210],
      "LargestImagePixelValue": [2176, 2085, 2037, 1995, 2009, 2043, 2030, 2022, 2019, 2012, 2015, 2016, 1994, 2048, 2028, 2012, 2036, 2024, 2032, 1989, 2025, 2035, 2015, 2040, 2034, 2027, 2012, 2022, 1979, 2039, 2007, 1996, 2022, 2026, 2005, 1994, 1998, 2025, 1984, 2007, 1998, 2000, 2009, 2019, 1971, 2019, 2001, 2006, 2035, 2044, 2029, 2027, 2034, 2028, 2039, 2016, 1992, 2014, 2010, 2017, 2010, 2018, 2015, 2004, 1987, 2014, 2014, 2028, 2030, 1997, 1996, 2027, 2004, 2017, 2021, 2025, 2021, 2009, 2045, 2058, 2018, 2060, 2052, 2024, 2029, 2024, 2039, 2032, 2037, 2000, 2024, 2002, 2031, 2014, 2003, 2007, 2024, 2046, 2035, 2003, 2007, 2015, 2021, 2026, 2011, 2012, 2036, 2032, 2028, 2018, 2013, 2041, 2022, 2007, 2003, 2037, 2003, 2041, 2039, 2014, 2036, 2042, 2014, 1995, 2045, 2021, 2015, 2013, 2018, 2031, 2043, 2004, 2006, 2011, 2019, 2004, 2015, 2005, 1998, 2020, 2021, 2012, 2010, 2035, 1977, 1988, 1996, 2030, 2012, 2036, 2014, 1995, 2008, 2039, 2014, 2026, 2023, 1990, 2019, 2030, 2007, 2030, 1991, 1990, 2038, 1997, 2007, 2015, 2012, 2004, 2028, 2006, 2007, 2039, 2023, 2000, 1988, 1997, 2026, 1985, 2031, 1995, 2030, 2001, 2059, 2037, 2030, 2038, 2044, 2015, 2037, 2051, 2046, 2048, 2011, 2027, 2036, 2038, 2040, 2052, 2022, 2023, 2016, 2040, 2028, 2044, 2024, 2024, 2007, 2016],
      "WindowCenter": [770.0, 766.0, 765.0, 764.0, 764.0, 764.0, 763.0, 763.0, 763.0, 763.0, 764.0, 764.0, 764.0, 764.0, 763.0, 763.0, 764.0, 764.0, 763.0, 765.0, 765.0, 764.0, 762.0, 763.0, 764.0, 765.0, 764.0, 764.0, 764.0, 764.0, 763.0, 763.0, 763.0, 764.0, 764.0, 764.0, 764.0, 763.0, 765.0, 765.0, 765.0, 763.0, 763.0, 764.0, 764.0, 764.0, 763.0, 763.0, 763.0, 763.0, 763.0, 763.0, 763.0, 764.0, 764.0, 764.0, 763.0, 763.0, 764.0, 763.0, 764.0, 765.0, 765.0, 765.0, 765.0, 765.0, 765.0, 764.0, 764.0, 763.0, 763.0, 763.0, 764.0, 764.0, 764.0, 764.0, 764.0, 764.0, 763.0, 763.0, 763.0, 764.0, 764.0, 764.0, 765.0, 765.0, 765.0, 764.0, 764.0, 765.0, 765.0, 765.0, 766.0, 766.0, 765.0, 764.0, 764.0, 765.0, 765.0, 764.0, 765.0, 767.0, 767.0, 767.0, 766.0, 766.0, 765.0, 764.0, 765.0, 766.0, 768.0, 768.0, 768.0, 766.0, 764.0, 763.0, 763.0, 762.0, 763.0, 763.0, 764.0, 766.0, 765.0, 765.0, 765.0, 766.0, 766.0, 766.0, 766.0, 765.0, 765.0, 765.0, 766.0, 766.0, 766.0, 766.0, 766.0, 766.0, 766.0, 766.0, 766.0, 766.0, 766.0, 767.0, 767.0, 766.0, 766.0, 765.0, 765.0, 765.0, 765.0, 764.0, 764.0, 764.0, 765.0, 764.0, 765.0, 765.0, 765.0, 765.0, 765.0, 766.0, 767.0, 767.0, 765.0, 764.0, 763.0, 764.0, 766.0, 767.0, 766.0, 764.0, 764.0, 764.0, 765.0, 766.0, 765.0, 765.0, 766.0, 765.0, 765.0, 768.0, 768.0, 767.0, 765.0, 765.0, 767.0, 766.0, 765.0, 765.0, 766.0, 765.0, 764.0, 765.0, 764.0, 765.0, 765.0, 764.0, 764.0, 764.0, 765.0, 764.0, 764.0, 765.0, 765.0, 764.0, 765.0, 765.0, 764.0, 764.0],
      "WindowWidth": [1626.0, 1617.0, 1613.0, 1611.0, 1610.0, 1611.0, 1609.0, 1609.0, 1609.0, 1610.0, 1610.0, 1611.0, 1610.0, 1610.0, 1609.0, 1610.0, 1611.0, 1611.0, 1609.0, 1614.0, 1613.0, 1610.0, 1607.0, 1607.0, 1611.0, 1613.0, 1611.0, 1610.0, 1610.0, 1611.0, 1609.0, 1609.0, 1609.0, 1610.0, 1610.0, 1610.0, 1610.0, 1609.0, 1613.0, 1613.0, 1613.0, 1609.0, 1609.0, 1611.0, 1612.0, 1610.0, 1609.0, 1609.0, 1609.0, 1609.0, 1609.0, 1608.0, 1608.0, 1610.0, 1612.0, 1611.0, 1609.0, 1609.0, 1610.0, 1610.0, 1611.0, 1613.0, 1612.0, 1613.0, 1613.0, 1614.0, 1613.0, 1611.0, 1610.0, 1609.0, 1608.0, 1609.0, 1611.0, 1611.0, 1610.0, 1610.0, 1610.0, 1610.0, 1609.0, 1609.0, 1609.0, 1610.0, 1611.0, 1612.0, 1612.0, 1612.0, 1612.0, 1612.0, 1612.0, 1613.0, 1613.0, 1614.0, 1617.0, 1615.0, 1613.0, 1611.0, 1612.0, 1614.0, 1614.0, 1612.0, 1614.0, 1618.0, 1619.0, 1617.0, 1614.0, 1614.0, 1612.0, 1611.0, 1613.0, 1615.0, 1620.0, 1620.0, 1619.0, 1614.0, 1609.0, 1608.0, 1607.0, 1606.0, 1607.0, 1609.0, 1611.0, 1614.0, 1612.0, 1611.0, 1613.0, 1614.0, 1615.0, 1614.0, 1614.0, 1614.0, 1613.0, 1613.0, 1615.0, 1614.0, 1615.0, 1615.0, 1615.0, 1614.0, 1615.0, 1616.0, 1615.0, 1614.0, 1614.0, 1617.0, 1616.0, 1615.0, 1614.0, 1612.0, 1612.0, 1613.0, 1613.0, 1611.0, 1610.0, 1611.0, 1612.0, 1611.0, 1612.0, 1613.0, 1613.0, 1612.0, 1612.0, 1616.0, 1618.0, 1617.0, 1614.0, 1610.0, 1608.0, 1610.0, 1615.0, 1617.0, 1615.0, 1611.0, 1610.0, 1610.0, 1614.0, 1617.0, 1613.0, 1614.0, 1615.0, 1613.0, 1615.0, 1620.0, 1622.0, 1618.0, 1614.0, 1613.0, 1619.0, 1616.0, 1612.0, 1612.0, 1615.0, 1614.0, 1611.0, 1612.0, 1612.0, 1612.0, 1613.0, 1612.0, 1612.0, 1611.0, 1613.0, 1611.0, 1611.0, 1613.0, 1613.0, 1612.0, 1612.0, 1612.0, 1610.0, 1610.0]
    },
    "slices": {}
  }
}