{
  "AcquisitionMatrixPE": 64,
  "AcquisitionNumber": 1,
  "AcquisitionTime": "16:57:45.027500",
  "BandwidthPerPixelPhaseEncode": 30.637,
  "BaseResolution": 64,
  "BidsGuess": [
    "func",
    "_acq-epfid2_dir-AP_run-3_bold"
],
  "CoilCombinationMethod": "Sum of Squares",
  "CoilString": "C:HEA;HEP",
  "ConversionSoftware": "dcm2niix",
  "ConversionSoftwareVersion": "v1.0.20240202",
  "DerivedVendorReportedEchoSpacing": 0.000510004,
  "DeviceSerialNumber": "35119",
  "DwellTime": 3.5e-06,
  "EchoTime": 0.03,
  "EffectiveEchoSpacing": 0.000510004,
  "FlipAngle": 78,
  "HeudiconvVersion": "1.1.6",
  "ImageComments": "V",
  "ImageOrientationPatientDICOM": [1, 0, 0, 0, 0.910684, -0.413104],
  "ImageOrientationText": "Tra>Cor(-24.4)",
  "ImageType": [
    "ORIGINAL",
    "PRIMARY",
    "M",
    "ND",
    "MOSAIC"
],
  "ImagingFrequency": 123.25209,
  "InPlanePhaseEncodingDirectionDICOM": "COL",
  "InstitutionAddress": "Chaucer Road  15,Cambridge,UK,GB,CB2 2EF",
  "InstitutionName": "MRC-CBU",
  "MRAcquisitionType": "2D",
  "MagneticFieldStrength": 3,
  "Manufacturer": "Siemens",
  "ManufacturersModelName": "TrioTim",
  "MatrixCoilMode": "SENSE",
  "Modality": "MR",
  "NonlinearGradientCorrection": false,
  "PartialFourier": 1,
  "PatientPosition": "HFS",
  "PercentPhaseFOV": 100,
  "PercentSampling": 100,
  "PhaseEncodingDirection": "j-",
  "PhaseEncodingSteps": 64,
  "PhaseResolution": 1,
  "PixelBandwidth": 2230,
  "ProcedureStepDescription": "CBU^Neuroimaging",
  "ProtocolName": "CBU_DWEPI_BOLD210",
  "PulseSequenceDetails": "%SiemensSeq%\\ep2d_bold",
  "ReceiveCoilName": "HeadMatrix",
  "ReconMatrixPE": 64,
  "RepetitionTime": 2,
  "SAR": 0.136455,
  "ScanOptions": "FS",
  "ScanningSequence": "EP",
  "SequenceName": "*epfid2d1_64",
  "SequenceVariant": "SK",
  "SeriesDescription": "CBU_DWEPI_BOLD210",
  "SeriesNumber": 3,
  "ShimSetting": [-7659, -8651, -2413, 982, 721, 682, -645, 57],
  "SliceThickness": 3,
  "SliceTiming": [0, 1.035, 0.0625, 1.095, 0.1225, 1.1575, 0.1825, 1.2175, 0.245, 1.2775, 0.305, 1.34, 0.365, 1.4, 0.4275, 1.46, 0.4875, 1.5225, 0.5475, 1.5825, 0.61, 1.6425, 0.67, 1.705, 0.73, 1.765, 0.7925, 1.825, 0.8525, 1.8875, 0.9125, 1.9475, 0.975],
  "SoftwareVersions": "syngo MR B15",
  "SpacingBetweenSlices": 3.9,
  "StationName": "MRC35119",
  "TaskName": "faceprocessing",
  "TotalReadoutTime": 0.0321303,
  "TxRefAmp": 297.418,
  "dcmmeta_affine": [
    [-3.0, 0.0, 0.0, 100.06779479980469],
    [0.0, 2.7320520877838135, -1.6111055612564087, -53.22117614746094],
    [0.0, 1.2393120527267456, 3.5516676902770996, -73.49205780029297],
    [0.0, 0.0, 0.0, 1.0]
],
  "dcmmeta_reorient_transform": [
    [0.0, -1.0, 0.0, 63.0],
    [1.0, 0.0, 0.0, 0.0],
    [0.0, 0.0, 1.0, 0.0],
    [0.0, 0.0, 0.0, 1.0]
],
  "dcmmeta_shape": [64, 64, 33, 210],
  "dcmmeta_slice_dim": 2,
  "dcmmeta_version": 0.6,
  "global": {
    "const": {
      "AcquisitionMatrix": [64, 0, 0, 64],
      "AngioFlag": "N",
      "BitsAllocated": 16,
      "BitsStored": 12,
      "Columns": 384,
      "EchoNumbers": 1,
      "EchoTime": 30.0,
      "EchoTrainLength": 1,
      "FlipAngle": 78.0,
      "HighBit": 11,
      "ImageOrientationPatient": [1.0, 0.0, 0.0, 0.0, 0.910684, -0.413104],
      "ImagePositionPatient": [-580.067797, -556.02642, 202.874516],
      "ImageType": [
        "ORIGINAL",
        "PRIMARY",
        "M",
        "ND",
        "MOSAIC"
],
      "ImagedNucleus": "1H",
      "ImagingFrequency": 123.25209,
      "InPlanePhaseEncodingDirection": "COL",
      "MRAcquisitionType": "2D",
      "MagneticFieldStrength": 3.0,
      "Manufacturer": "SIEMENS",
      "ManufacturerModelName": "TrioTim",
      "Modality": "MR",
      "NumberOfAverages": 1.0,
      "NumberOfPhaseEncodingSteps": 64,
      "PercentPhaseFieldOfView": 100.0,
      "PercentSampling": 100.0,
      "PerformedProcedureStepStartTime": "164906.828000",
      "PhotometricInterpretation": "MONOCHROME2",
      "PixelAspectRatio": [1, 1],
      "PixelBandwidth": 2230.0,
      "PixelRepresentation": 0,
      "PixelSpacing": [3.0, 3.0],
      "ProtocolName": "CBU_DWEPI_BOLD210",
      "RepetitionTime": 2000.0,
      "Rows": 384,
      "SAR": 0.136455,
      "SamplesPerPixel": 1,
      "ScanOptions": "FS",
      "ScanningSequence": "EP",
      "SequenceName": "*epfid2d1_64",
      "SequenceVariant": "SK",
      "SeriesDescription": "CBU_DWEPI_BOLD210",
      "SeriesNumber": 3,
      "SeriesTime": "165749.078000",
      "SliceLocation": -44.94247,
      "SliceThickness": 3.0,
      "SmallestImagePixelValue": 0,
      "SoftwareVersions": "syngo MR B15",
      "SpacingBetweenSlices": 3.9,
      "SpecificCharacterSet": "ISO_IR 100",
      "StudyID": "1",
      "StudyTime": "164906.781000",
      "TransmitCoilName": "Body",
      "VariableFlipAngleFlag": "N",
      "WindowCenterWidthExplanation": "Algo1",
      "dBdt": 0.0},
    "slices": {}
  },
  "time": {
    "samples": {
      "AcquisitionNumber": [1, 2, 3, 4, 5, 6, 7, 8, 9, 10, 11, 12, 13, 14, 15, 16, 17, 18, 19, 20, 21, 22, 23, 24, 25, 26, 27, 28, 29, 30, 31, 32, 33, 34, 35, 36, 37, 38, 39, 40, 41, 42, 43, 44, 45, 46, 47, 48, 49, 50, 51, 52, 53, 54, 55, 56, 57, 58, 59, 60, 61, 62, 63, 64, 65, 66, 67, 68, 69, 70, 71, 72, 73, 74, 75, 76, 77, 78, 79, 80, 81, 82, 83, 84, 85, 86, 87, 88, 89, 90, 91, 92, 93, 94, 95, 96, 97, 98, 99, 100, 101, 102, 103, 104, 105, 106, 107, 108, 109, 110, 111, 112, 113, 114, 115, 116, 117, 118, 119, 120, 121, 122, 123, 124, 125, 126, 127, 128, 129, 130, 131, 132, 133, 134, 135, 136, 137, 138, 139, 140, 141, 142, 143, 144, 145, 146, 147, 148, 149, 150, 151, 152, 153, 154, 155, 156, 157, 158, 159, 160, 161, 162, 163, 164, 165, 166, 167, 168, 169, 170, 171, 172, 173, 174, 175, 176, 177, 178, 179, 180, 181, 182, 183, 184, 185, 186, 187, 188, 189, 190, 191, 192, 193, 194, 195, 196, 197, 198, 199, 200, 201, 202, 203, 204, 205, 206, 207, 208, 209, 210],
      "AcquisitionTime": ["165745.027500", "165747.037500", "165749.045000", "165751.052500", "165753.060000", "165755.070000", "165757.077500", "165759.085000", "165801.092500", "165803.100000", "165805.110000", "165807.117500", "165809.125000", "165811.132500", "165813.140000", "165815.150000", "165817.157500", "165819.165000", "165821.172500", "165823.182500", "165825.190000", "165827.197500", "165829.205000", "165831.212500", "165833.222500", "165835.230000", "165837.237500", "165839.245000", "165841.252500", "165843.262500", "165845.270000", "165847.277500", "165849.285000", "165851.295000", "165853.302500", "165855.310000", "165857.317500", "165859.325000", "165901.335000", "165903.342500", "165905.350000", "165907.357500", "165909.365000", "165911.375000", "165913.382500", "165915.390000", "165917.397500", "165919.405000", "165921.415000", "165923.422500", "165925.430000", "165927.437500", "165929.447500", "165931.455000", "165933.462500", "165935.470000", "165937.477500", "165939.487500", "165941.495000", "165943.502500", "165945.510000", "165947.517500", "165949.527500", "165951.535000", "165953.542500", "165955.550000", "165957.560000", "165959.567500", "170001.575000", "170003.582500", "170005.590000", "170007.600000", "170009.607500", "170011.615000", "170013.622500", "170015.630000", "170017.640000", "170019.647500", "170021.655000", "170023.662500", "170025.672500", "170027.680000", "170029.687500", "170031.695000", "170033.702500", "170035.712500", "170037.720000", "170039.727500", "170041.735000", "170043.742500", "170045.752500", "170047.760000", "170049.767500", "170051.775000", "170053.782500", "170055.792500", "170057.800000", "170059.807500", "170101.815000", "170103.825000", "170105.832500", "170107.840000", "170109.847500", "170111.855000", "170113.865000", "170115.872500", "170117.880000", "170119.887500", "170121.895000", "170123.905000", "170125.912500", "170127.920000", "170129.927500", "170131.937500", "170133.945000", "170135.952500", "170137.960000", "170139.967500", "170141.977500", "170143.985000", "170145.992500", "170148.000000", "170150.007500", "170152.017500", "170154.025000", "170156.032500", "170158.040000", "170200.050000", "170202.057500", "170204.065000", "170206.072500", "170208.080000", "170210.090000", "170212.097500", "170214.105000", "170216.112500", "170218.120000", "170220.130000", "170222.137500", "170224.145000", "170226.152500", "170228.160000", "170230.170000", "170232.177500", "170234.185000", "170236.192500", "170238.202500", "170240.210000", "170242.217500", "170244.225000", "170246.232500", "170248.242500", "170250.250000", "170252.257500", "170254.265000", "170256.272500", "170258.282500", "170300.290000", "170302.297500", "170304.305000", "170306.315000", "170308.322500", "170310.330000", "170312.337500", "170314.345000", "170316.355000", "170318.362500", "170320.370000", "170322.377500", "170324.385000", "170326.395000", "170328.402500", "170330.410000", "170332.417500", "170334.427500", "170336.435000", "170338.442500", "170340.450000", "170342.457500", "170344.467500", "170346.475000", "170348.482500", "170350.490000", "170352.497500", "170354.507500", "170356.515000", "170358.522500", "170400.530000", "170402.537500", "170404.547500", "170406.555000", "170408.562500", "170410.570000", "170412.580000", "170414.587500", "170416.595000", "170418.602500", "170420.610000", "170422.620000", "170424.627500", "170426.635000", "170428.642500", "170430.650000", "170432.660000", "170434.667500", "170436.675000", "170438.682500", "170440.692500", "170442.700000", "170444.707500"],
      "ContentTime": ["165749.078000", "165751.062000", "165753.078000", "165755.078000", "165757.078000", "165759.062000", "165801.078000", "165803.078000", "165805.062000", "165807.078000", "165809.078000", "165811.062000", "165813.078000", "165815.062000", "165817.062000", "165819.062000", "165821.078000", "165823.078000", "165825.062000", "165827.078000", "165829.078000", "165831.078000", "165833.078000", "165835.062000", "165837.062000", "165839.078000", "165841.062000", "165843.078000", "165845.078000", "165847.062000", "165849.062000", "165851.062000", "165853.062000", "165855.062000", "165857.062000", "165859.562000", "165901.078000", "165903.062000", "165905.078000", "165907.078000", "165909.078000", "165911.062000", "165913.062000", "165915.062000", "165917.062000", "165919.578000", "165921.062000", "165923.062000", "165925.078000", "165927.078000", "165929.062000", "165931.062000", "165933.062000", "165935.078000", "165937.078000", "165939.078000", "165941.078000", "165943.062000", "165945.078000", "165947.078000", "165949.062000", "165951.062000", "165953.062000", "165955.062000", "165957.062000", "165959.062000", "170001.078000", "170003.062000", "170005.062000", "170007.062000", "170009.062000", "170011.062000", "170013.078000", "170015.062000", "170017.062000", "170019.062000", "170021.062000", "170023.062000", "170025.078000", "170027.062000", "170029.062000", "170031.062000", "170033.062000", "170035.062000", "170037.062000", "170039.062000", "170041.062000", "170043.078000", "170045.078000", "170047.062000", "170049.062000", "170051.062000", "170053.078000", "170055.062000", "170057.062000", "170059.062000", "170101.062000", "170103.062000", "170105.078000", "170107.062000", "170109.062000", "170111.062000", "170113.062000", "170115.062000", "170117.078000", "170119.062000", "170121.062000", "170123.062000", "170125.062000", "170127.062000", "170129.062000", "170131.062000", "170133.062000", "170135.062000", "170137.062000", "170139.062000", "170141.062000", "170143.062000", "170145.062000", "170147.062000", "170149.062000", "170151.062000", "170153.062000", "170155.062000", "170157.062000", "170159.062000", "170201.062000", "170203.062000", "170205.062000", "170207.062000", "170209.062000", "170211.062000", "170213.062000", "170215.078000", "170217.062000", "170219.062000", "170221.062000", "170223.062000", "170225.062000", "170227.062000", "170229.062000", "170231.062000", "170233.062000", "170235.062000", "170237.062000", "170239.062000", "170241.062000", "170243.062000", "170245.078000", "170247.062000", "170249.062000", "170251.062000", "170253.062000", "170255.062000", "170257.062000", "170259.062000", "170301.062000", "170303.062000", "170305.062000", "170307.062000", "170309.062000", "170311.062000", "170313.062000", "170315.062000", "170317.062000", "170319.062000", "170321.062000", "170323.062000", "170325.062000", "170327.062000", "170329.062000", "170331.062000", "170333.062000", "170335.062000", "170337.062000", "170339.062000", "170341.062000", "170343.062000", "170345.062000", "170347.062000", "170349.062000", "170351.062000", "170353.062000", "170355.062000", "170357.062000", "170359.062000", "170401.062000", "170403.062000", "170405.062000", "170407.062000", "170409.062000", "170411.062000", "170413.062000", "170415.062000", "170417.062000", "170419.062000", "170421.062000", "170423.062000", "170425.578000", "170427.062000", "170429.062000", "170431.062000", "170433.078000", "170435.062000", "170437.062000", "170439.062000", "170441.062000", "170443.062000", "170445.562000", "170446.875000"],
      "InstanceCreationTime": ["165749.078000", "165751.062000", "165753.078000", "165755.078000", "165757.078000", "165759.062000", "165801.078000", "165803.078000", "165805.062000", "165807.078000", "165809.078000", "165811.062000", "165813.078000", "165815.062000", "165817.062000", "165819.062000", "165821.078000", "165823.078000", "165825.062000", "165827.078000", "165829.078000", "165831.078000", "165833.078000", "165835.062000", "165837.062000", "165839.078000", "165841.062000", "165843.078000", "165845.078000", "165847.062000", "165849.062000", "165851.062000", "165853.062000", "165855.062000", "165857.062000", "165859.562000", "165901.078000", "165903.062000", "165905.078000", "165907.078000", "165909.078000", "165911.062000", "165913.062000", "165915.062000", "165917.062000", "165919.578000", "165921.062000", "165923.062000", "165925.078000", "165927.078000", "165929.062000", "165931.062000", "165933.062000", "165935.078000", "165937.078000", "165939.078000", "165941.078000", "165943.062000", "165945.078000", "165947.078000", "165949.062000", "165951.062000", "165953.062000", "165955.062000", "165957.062000", "165959.062000", "170001.078000", "170003.062000", "170005.062000", "170007.062000", "170009.062000", "170011.062000", "170013.078000", "170015.062000", "170017.062000", "170019.062000", "170021.062000", "170023.062000", "170025.078000", "170027.062000", "170029.062000", "170031.062000", "170033.062000", "170035.062000", "170037.062000", "170039.062000", "170041.062000", "170043.078000", "170045.078000", "170047.062000", "170049.062000", "170051.062000", "170053.078000", "170055.062000", "170057.062000", "170059.062000", "170101.062000", "170103.062000", "170105.078000", "170107.062000", "170109.062000", "170111.062000", "170113.062000", "170115.062000", "170117.078000", "170119.062000", "170121.062000", "170123.062000", "170125.062000", "170127.062000", "170129.062000", "170131.062000", "170133.062000", "170135.062000", "170137.062000", "170139.062000", "170141.062000", "170143.062000", "170145.062000", "170147.062000", "170149.062000", "170151.062000", "170153.062000", "170155.062000", "170157.062000", "170159.062000", "170201.062000", "170203.062000", "170205.062000", "170207.062000", "170209.062000", "170211.062000", "170213.062000", "170215.078000", "170217.062000", "170219.062000", "170221.062000", "170223.062000", "170225.062000", "170227.062000", "170229.062000", "170231.062000", "170233.062000", "170235.062000", "170237.062000", "170239.062000", "170241.062000", "170243.062000", "170245.078000", "170247.062000", "170249.062000", "170251.062000", "170253.062000", "170255.062000", "170257.062000", "170259.062000", "170301.062000", "170303.062000", "170305.062000", "170307.062000", "170309.062000", "170311.062000", "170313.062000", "170315.062000", "170317.062000", "170319.062000", "170321.062000", "170323.062000", "170325.062000", "170327.062000", "170329.062000", "170331.062000", "170333.062000", "170335.062000", "170337.062000", "170339.062000", "170341.062000", "170343.062000", "170345.062000", "170347.062000", "170349.062000", "170351.062000", "170353.062000", "170355.062000", "170357.062000", "170359.062000", "170401.062000", "170403.062000", "170405.062000", "170407.062000", "170409.062000", "170411.062000", "170413.062000", "170415.062000", "170417.062000", "170419.062000", "170421.062000", "170423.062000", "170425.578000", "170427.062000", "170429.062000", "170431.062000", "170433.078000", "170435.062000", "170437.062000", "170439.062000", "170441.062000", "170443.062000", "170445.562000", "170446.875000"],
      "InstanceNumber": [1, 2, 3, 4, 5, 6, 7, 8, 9, 10, 11, 12, 13, 14, 15, 16, 17, 18, 19, 20, 21, 22, 23, 24, 25, 26, 27, 28, 29, 30, 31, 32, 33, 34, 35, 36, 37, 38, 39, 40, 41, 42, 43, 44, 45, 46, 47, 48, 49, 50, 51, 52, 53, 54, 55, 56, 57, 58, 59, 60, 61, 62, 63, 64, 65, 66, 67, 68, 69, 70, 71, 72, 73, 74, 75, 76, 77, 78, 79, 80, 81, 82, 83, 84, 85, 86, 87, 88, 89, 90, 91, 92, 93, 94, 95, 96, 97, 98, 99, 100, 101, 102, 103, 104, 105, 106, 107, 108, 109, 110, 111, 112, 113, 114, 115, 116, 117, 118, 119, 120, 121, 122, 123, 124, 125, 126, 127, 128, 129, 130, 131, 132, 133, 134, 135, 136, 137, 138, 139, 140, 141, 142, 143, 144, 145, 146, 147, 148, 149, 150, 151, 152, 153, 154, 155, 156, 157, 158, 159, 160, 161, 162, 163, 164, 165, 166, 167, 168, 169, 170, 171, 172, 173, 174, 175, 176, 177, 178, 179, 180, 181, 182, 183, 184, 185, 186, 187, 188, 189, 190, 191, 192, 193, 194, 195, 196, 197, 198, 199, 200, 201, 202, 203, 204, 205, 206, 207, 208, 209, 210],
      "LargestImagePixelValue": [1873, 1767, 1755, 1756, 1726, 1713, 1711, 1728, 1754, 1739, 1719, 1742, 1724, 1755, 1736, 1743, 1742, 1741, 1731, 1736, 1723, 1749, 1739, 1739, 1738, 1740, 1731, 1755, 1728, 1751, 1719, 1744, 1732, 1718, 1738, 1753, 1745, 1744, 1752, 1746, 1747, 1743, 1753, 1738, 1764, 1749, 1734, 1708, 1747, 1713, 1743, 1728, 1716, 1752, 1726, 1745, 1741, 1729, 1733, 1744, 1762, 1745, 1771, 1745, 1740, 1743, 1773, 1748, 1764, 1722, 1731, 1743, 1727, 1755, 1735, 1738, 1726, 1748, 1757, 1742, 1764, 1714, 1734, 1729, 1730, 1735, 1731, 1715, 1733, 1711, 1714, 1728, 1734, 1732, 1736, 1747, 1756, 1751, 1754, 1744, 1742, 1740, 1741, 1738, 1737, 1761, 1751, 1743, 1777, 1731, 1748, 1726, 1756, 1735, 1782, 1734, 1741, 1735, 1729, 1751, 1736, 1743, 1742, 1731, 1735, 1718, 1710, 1711, 1730, 1723, 1726, 1724, 1730, 1726, 1720, 1707, 1729, 1748, 1738, 1743, 1755, 1733, 1721, 1721, 1739, 1727, 1749, 1730, 1718, 1728, 1727, 1707, 1738, 1721, 1728, 1720, 1737, 1712, 1714, 1731, 1725, 1722, 1713, 1729, 1702, 1691, 1717, 1747, 1724, 1720, 1718, 1734, 1730, 1732, 1722, 1725, 1713, 1722, 1720, 1715, 1711, 1714, 1727, 1739, 1732, 1730, 1743, 1728, 1705, 1907, 1748, 1744, 1723, 1709, 1699, 1706, 1703, 1701, 1685, 1694, 1692, 1762, 1731, 1727, 1710, 1720, 1709, 1706, 1691, 1700],
      "WindowCenter": [748.0, 745.0, 747.0, 746.0, 746.0, 746.0, 746.0, 746.0, 745.0, 744.0, 744.0, 745.0, 745.0, 744.0, 744.0, 745.0, 746.0, 745.0, 744.0, 745.0, 745.0, 744.0, 744.0, 745.0, 745.0, 745.0, 746.0, 746.0, 745.0, 745.0, 744.0, 746.0, 746.0, 745.0, 745.0, 744.0, 744.0, 745.0, 746.0, 746.0, 746.0, 746.0, 746.0, 745.0, 744.0, 744.0, 745.0, 745.0, 748.0, 747.0, 746.0, 745.0, 744.0, 745.0, 745.0, 745.0, 746.0, 745.0, 745.0, 746.0, 747.0, 746.0, 746.0, 747.0, 745.0, 744.0, 745.0, 745.0, 748.0, 747.0, 746.0, 746.0, 746.0, 746.0, 747.0, 747.0, 746.0, 746.0, 748.0, 747.0, 747.0, 748.0, 747.0, 746.0, 746.0, 747.0, 747.0, 746.0, 746.0, 746.0, 747.0, 747.0, 747.0, 746.0, 745.0, 746.0, 747.0, 747.0, 748.0, 748.0, 747.0, 745.0, 745.0, 745.0, 745.0, 747.0, 747.0, 746.0, 746.0, 745.0, 745.0, 747.0, 749.0, 748.0, 747.0, 746.0, 747.0, 750.0, 748.0, 748.0, 746.0, 749.0, 749.0, 748.0, 746.0, 746.0, 746.0, 747.0, 747.0, 747.0, 747.0, 748.0, 747.0, 747.0, 749.0, 749.0, 750.0, 750.0, 748.0, 747.0, 747.0, 746.0, 746.0, 748.0, 747.0, 746.0, 747.0, 747.0, 748.0, 748.0, 749.0, 749.0, 750.0, 749.0, 747.0, 746.0, 749.0, 753.0, 751.0, 748.0, 746.0, 746.0, 746.0, 747.0, 748.0, 748.0, 748.0, 747.0, 747.0, 747.0, 748.0, 750.0, 751.0, 751.0, 751.0, 750.0, 749.0, 749.0, 747.0, 749.0, 750.0, 748.0, 747.0, 747.0, 749.0, 747.0, 747.0, 749.0, 751.0, 751.0, 747.0, 750.0, 751.0, 750.0, 748.0, 746.0, 747.0, 748.0, 750.0, 750.0, 749.0, 750.0, 750.0, 749.0, 750.0, 750.0, 752.0, 751.0, 750.0, 749.0],
      "WindowWidth": [1581.0, 1575.0, 1578.0, 1576.0, 1577.0, 1577.0, 1576.0, 1576.0, 1573.0, 1571.0, 1571.0, 1573.0, 1572.0, 1571.0, 1571.0, 1573.0, 1575.0, 1573.0, 1571.0, 1573.0, 1572.0, 1571.0, 1570.0, 1573.0, 1572.0, 1574.0, 1575.0, 1576.0, 1573.0, 1573.0, 1572.0, 1575.0, 1575.0, 1574.0, 1572.0, 1572.0, 1572.0, 1573.0, 1575.0, 1576.0, 1575.0, 1575.0, 1575.0, 1572.0, 1572.0, 1572.0, 1573.0, 1574.0, 1580.0, 1578.0, 1576.0, 1573.0, 1572.0, 1573.0, 1573.0, 1573.0, 1575.0, 1574.0, 1573.0, 1577.0, 1577.0, 1575.0, 1575.0, 1578.0, 1574.0, 1572.0, 1572.0, 1573.0, 1580.0, 1577.0, 1575.0, 1575.0, 1575.0, 1576.0, 1578.0, 1578.0, 1576.0, 1576.0, 1580.0, 1577.0, 1578.0, 1580.0, 1579.0, 1575.0, 1577.0, 1579.0, 1578.0, 1577.0, 1576.0, 1577.0, 1577.0, 1578.0, 1577.0, 1575.0, 1572.0, 1575.0, 1578.0, 1578.0, 1580.0, 1581.0, 1577.0, 1573.0, 1572.0, 1572.0, 1573.0, 1577.0, 1579.0, 1576.0, 1576.0, 1574.0, 1574.0, 1577.0, 1584.0, 1579.0, 1577.0, 1576.0, 1578.0, 1586.0, 1581.0, 1580.0, 1576.0, 1582.0, 1583.0, 1580.0, 1576.0, 1575.0, 1576.0, 1577.0, 1579.0, 1577.0, 1577.0, 1580.0, 1578.0, 1578.0, 1582.0, 1583.0, 1585.0, 1586.0, 1581.0, 1577.0, 1578.0, 1575.0, 1577.0, 1580.0, 1578.0, 1575.0, 1577.0, 1579.0, 1581.0, 1581.0, 1582.0, 1584.0, 1586.0, 1583.0, 1578.0, 1577.0, 1584.0, 1593.0, 1588.0, 1581.0, 1576.0, 1576.0, 1575.0, 1578.0, 1581.0, 1580.0, 1579.0, 1579.0, 1578.0, 1578.0, 1581.0, 1586.0, 1589.0, 1588.0, 1587.0, 1585.0, 1582.0, 1581.0, 1578.0, 1582.0, 1587.0, 1581.0, 1577.0, 1579.0, 1583.0, 1578.0, 1579.0, 1584.0, 1589.0, 1586.0, 1579.0, 1585.0, 1588.0, 1584.0, 1579.0, 1577.0, 1578.0, 1580.0, 1585.0, 1585.0, 1583.0, 1587.0, 1585.0, 1584.0, 1584.0, 1586.0, 1590.0, 1587.0, 1584.0, 1583.0]
    },
    "slices": {}
  }
}