{
  "AcquisitionMatrixPE": 64,
  "AcquisitionNumber": 1,
  "AcquisitionTime": "16:58:14.325000",
  "BandwidthPerPixelPhaseEncode": 30.637,
  "BaseResolution": 64,
  "BidsGuess": [
    "func",
    "_acq-epfid2_dir-AP_run-4_bold"
],
  "CoilCombinationMethod": "Sum of Squares",
  "CoilString": "C:HEA;HEP",
  "ConversionSoftware": "dcm2niix",
  "ConversionSoftwareVersion": "v1.0.20240202",
  "DerivedVendorReportedEchoSpacing": 0.000510004,
  "DeviceSerialNumber": "35119",
  "DwellTime": 3.5e-06,
  "EchoTime": 0.03,
  "EffectiveEchoSpacing": 0.000510004,
  "FlipAngle": 78,
  "HeudiconvVersion": "1.1.6",
  "ImageComments": "V",
  "ImageOrientationPatientDICOM": [1, 0, 0, 0, 0.895712, -0.444635],
  "ImageOrientationText": "Tra>Cor(-26.4)",
  "ImageType": [
    "ORIGINAL",
    "PRIMARY",
    "M",
    "ND",
    "MOSAIC"
],
  "ImagingFrequency": 123.251783,
  "InPlanePhaseEncodingDirectionDICOM": "COL",
  "InstitutionAddress": "Chaucer Road  15,Cambridge,UK,GB,CB2 2EF",
  "InstitutionName": "MRC-CBU",
  "MRAcquisitionType": "2D",
  "MagneticFieldStrength": 3,
  "Manufacturer": "Siemens",
  "ManufacturersModelName": "TrioTim",
  "MatrixCoilMode": "SENSE",
  "Modality": "MR",
  "NonlinearGradientCorrection": false,
  "PartialFourier": 1,
  "PatientPosition": "HFS",
  "PercentPhaseFOV": 100,
  "PercentSampling": 100,
  "PhaseEncodingDirection": "j-",
  "PhaseEncodingSteps": 64,
  "PhaseResolution": 1,
  "PixelBandwidth": 2230,
  "ProcedureStepDescription": "CBU^Neuroimaging",
  "ProtocolName": "CBU_DWEPI_BOLD210",
  "PulseSequenceDetails": "%SiemensSeq%\\ep2d_bold",
  "ReceiveCoilName": "HeadMatrix",
  "ReconMatrixPE": 64,
  "RepetitionTime": 2,
  "SAR": 0.139965,
  "ScanOptions": "FS",
  "ScanningSequence": "EP",
  "SequenceName": "*epfid2d1_64",
  "SequenceVariant": "SK",
  "SeriesDescription": "CBU_DWEPI_BOLD210",
  "SeriesNumber": 4,
  "ShimSetting": [-7803, -8783, -2001, 858, 247, -245, 34, 62],
  "SliceThickness": 3,
  "SliceTiming": [0, 1.035, 0.06, 1.095, 0.1225, 1.155, 0.1825, 1.2175, 0.2425, 1.2775, 0.305, 1.3375, 0.365, 1.4, 0.425, 1.46, 0.4875, 1.52, 0.5475, 1.5825, 0.6075, 1.6425, 0.67, 1.7025, 0.73, 1.765, 0.79, 1.825, 0.8525, 1.885, 0.9125, 1.9475, 0.9725],
  "SoftwareVersions": "syngo MR B15",
  "SpacingBetweenSlices": 3.75,
  "StationName": "MRC35119",
  "TaskName": "faceprocessing",
  "TotalReadoutTime": 0.0321303,
  "TxRefAmp": 328.238,
  "dcmmeta_affine": [
    [-3.0, 0.0, 0.0, 100.56779479980469],
    [0.0, 2.687135934829712, -1.6673812866210938, -47.71282958984375],
    [0.0, 1.3339049816131592, 3.358920097351074, -77.85394287109375],
    [0.0, 0.0, 0.0, 1.0]
],
  "dcmmeta_reorient_transform": [
    [0.0, -1.0, 0.0, 63.0],
    [1.0, 0.0, 0.0, 0.0],
    [0.0, 0.0, 1.0, 0.0],
    [0.0, 0.0, 0.0, 1.0]
],
  "dcmmeta_shape": [64, 64, 33, 210],
  "dcmmeta_slice_dim": 2,
  "dcmmeta_version": 0.6,
  "global": {
    "const": {
      "AcquisitionMatrix": [64, 0, 0, 64],
      "AngioFlag": "N",
      "BitsAllocated": 16,
      "BitsStored": 12,
      "Columns": 384,
      "EchoNumbers": 1,
      "EchoTime": 30.0,
      "EchoTrainLength": 1,
      "FlipAngle": 78.0,
      "HighBit": 11,
      "ImageOrientationPatient": [1.0, 0.0, 0.0, 0.0, 0.895712, -0.444635],
      "ImagePositionPatient": [-580.567797, -551.518497, 219.60687],
      "ImageType": [
        "ORIGINAL",
        "PRIMARY",
        "M",
        "ND",
        "MOSAIC"
],
      "ImagedNucleus": "1H",
      "ImagingFrequency": 123.251783,
      "InPlanePhaseEncodingDirection": "COL",
      "MRAcquisitionType": "2D",
      "MagneticFieldStrength": 3.0,
      "Manufacturer": "SIEMENS",
      "ManufacturerModelName": "TrioTim",
      "Modality": "MR",
      "NumberOfAverages": 1.0,
      "NumberOfPhaseEncodingSteps": 64,
      "PercentPhaseFieldOfView": 100.0,
      "PercentSampling": 100.0,
      "PerformedProcedureStepStartTime": "164150.281000",
      "PhotometricInterpretation": "MONOCHROME2",
      "PixelAspectRatio": [1, 1],
      "PixelBandwidth": 2230.0,
      "PixelRepresentation": 0,
      "PixelSpacing": [3.0, 3.0],
      "ProtocolName": "CBU_DWEPI_BOLD210",
      "RepetitionTime": 2000.0,
      "Rows": 384,
      "SAR": 0.139965,
      "SamplesPerPixel": 1,
      "ScanOptions": "FS",
      "ScanningSequence": "EP",
      "SequenceName": "*epfid2d1_64",
      "SequenceVariant": "SK",
      "SeriesDescription": "CBU_DWEPI_BOLD210",
      "SeriesNumber": 4,
      "SeriesTime": "165817.593000",
      "SliceLocation": -48.520071,
      "SliceThickness": 3.0,
      "SmallestImagePixelValue": 0,
      "SoftwareVersions": "syngo MR B15",
      "SpacingBetweenSlices": 3.75,
      "SpecificCharacterSet": "ISO_IR 100",
      "StudyID": "1",
      "StudyTime": "164150.218000",
      "TransmitCoilName": "Body",
      "VariableFlipAngleFlag": "N",
      "WindowCenterWidthExplanation": "Algo1",
      "dBdt": 0.0},
    "slices": {}
  },
  "time": {
    "samples": {
      "AcquisitionNumber": [1, 2, 3, 4, 5, 6, 7, 8, 9, 10, 11, 12, 13, 14, 15, 16, 17, 18, 19, 20, 21, 22, 23, 24, 25, 26, 27, 28, 29, 30, 31, 32, 33, 34, 35, 36, 37, 38, 39, 40, 41, 42, 43, 44, 45, 46, 47, 48, 49, 50, 51, 52, 53, 54, 55, 56, 57, 58, 59, 60, 61, 62, 63, 64, 65, 66, 67, 68, 69, 70, 71, 72, 73, 74, 75, 76, 77, 78, 79, 80, 81, 82, 83, 84, 85, 86, 87, 88, 89, 90, 91, 92, 93, 94, 95, 96, 97, 98, 99, 100, 101, 102, 103, 104, 105, 106, 107, 108, 109, 110, 111, 112, 113, 114, 115, 116, 117, 118, 119, 120, 121, 122, 123, 124, 125, 126, 127, 128, 129, 130, 131, 132, 133, 134, 135, 136, 137, 138, 139, 140, 141, 142, 143, 144, 145, 146, 147, 148, 149, 150, 151, 152, 153, 154, 155, 156, 157, 158, 159, 160, 161, 162, 163, 164, 165, 166, 167, 168, 169, 170, 171, 172, 173, 174, 175, 176, 177, 178, 179, 180, 181, 182, 183, 184, 185, 186, 187, 188, 189, 190, 191, 192, 193, 194, 195, 196, 197, 198, 199, 200, 201, 202, 203, 204, 205, 206, 207, 208, 209, 210],
      "AcquisitionTime": ["165814.325000", "165816.332500", "165818.340000", "165820.350000", "165822.357500", "165824.365000", "165826.372500", "165828.380000", "165830.390000", "165832.397500", "165834.405000", "165836.412500", "165838.422500", "165840.430000", "165842.437500", "165844.445000", "165846.452500", "165848.462500", "165850.470000", "165852.477500", "165854.485000", "165856.492500", "165858.502500", "165900.510000", "165902.517500", "165904.525000", "165906.535000", "165908.542500", "165910.550000", "165912.557500", "165914.565000", "165916.575000", "165918.582500", "165920.590000", "165922.597500", "165924.605000", "165926.615000", "165928.622500", "165930.630000", "165932.637500", "165934.647500", "165936.655000", "165938.662500", "165940.670000", "165942.677500", "165944.687500", "165946.695000", "165948.702500", "165950.710000", "165952.717500", "165954.727500", "165956.735000", "165958.742500", "170000.750000", "170002.757500", "170004.767500", "170006.775000", "170008.782500", "170010.790000", "170012.800000", "170014.807500", "170016.815000", "170018.822500", "170020.830000", "170022.840000", "170024.847500", "170026.855000", "170028.862500", "170030.870000", "170032.880000", "170034.887500", "170036.895000", "170038.902500", "170040.912500", "170042.920000", "170044.927500", "170046.935000", "170048.942500", "170050.952500", "170052.960000", "170054.967500", "170056.975000", "170058.982500", "170100.992500", "170103.000000", "170105.007500", "170107.015000", "170109.025000", "170111.032500", "170113.040000", "170115.047500", "170117.055000", "170119.065000", "170121.072500", "170123.080000", "170125.087500", "170127.095000", "170129.105000", "170131.112500", "170133.120000", "170135.127500", "170137.137500", "170139.145000", "170141.152500", "170143.160000", "170145.167500", "170147.177500", "170149.185000", "170151.192500", "170153.200000", "170155.207500", "170157.217500", "170159.225000", "170201.232500", "170203.240000", "170205.247500", "170207.257500", "170209.265000", "170211.272500", "170213.280000", "170215.290000", "170217.297500", "170219.305000", "170221.312500", "170223.320000", "170225.330000", "170227.337500", "170229.345000", "170231.352500", "170233.360000", "170235.370000", "170237.377500", "170239.385000", "170241.392500", "170243.402500", "170245.410000", "170247.417500", "170249.425000", "170251.432500", "170253.442500", "170255.450000", "170257.457500", "170259.465000", "170301.472500", "170303.482500", "170305.490000", "170307.497500", "170309.505000", "170311.515000", "170313.522500", "170315.530000", "170317.537500", "170319.545000", "170321.555000", "170323.562500", "170325.570000", "170327.577500", "170329.585000", "170331.595000", "170333.602500", "170335.610000", "170337.617500", "170339.625000", "170341.635000", "170343.642500", "170345.650000", "170347.657500", "170349.667500", "170351.675000", "170353.682500", "170355.690000", "170357.697500", "170359.707500", "170401.715000", "170403.722500", "170405.730000", "170407.737500", "170409.747500", "170411.755000", "170413.762500", "170415.770000", "170417.780000", "170419.787500", "170421.795000", "170423.802500", "170425.810000", "170427.820000", "170429.827500", "170431.835000", "170433.842500", "170435.850000", "170437.860000", "170439.867500", "170441.875000", "170443.882500", "170445.892500", "170447.900000", "170449.907500", "170451.915000", "170453.922500", "170455.932500", "170457.940000", "170459.947500", "170501.955000", "170503.962500", "170505.972500", "170507.980000", "170509.987500", "170511.995000", "170514.002500"],
      "ContentTime": ["165817.609000", "165819.593000", "165821.593000", "165823.593000", "165825.593000", "165827.593000", "165829.593000", "165831.593000", "165833.593000", "165835.593000", "165837.593000", "165839.593000", "165841.593000", "165843.593000", "165845.593000", "165847.593000", "165849.593000", "165851.593000", "165853.593000", "165856.093000", "165857.593000", "165859.593000", "165901.593000", "165903.593000", "165905.593000", "165907.593000", "165909.593000", "165911.593000", "165913.593000", "165915.593000", "165917.593000", "165919.593000", "165921.593000", "165923.593000", "165925.593000", "165927.593000", "165929.593000", "165931.593000", "165933.593000", "165935.593000", "165937.593000", "165939.593000", "165941.593000", "165943.593000", "165945.593000", "165947.593000", "165949.593000", "165951.593000", "165953.593000", "165955.593000", "165957.593000", "165959.593000", "170001.593000", "170003.593000", "170006.093000", "170007.593000", "170009.593000", "170011.593000", "170013.593000", "170015.593000", "170017.593000", "170019.593000", "170021.593000", "170023.593000", "170025.593000", "170027.593000", "170029.593000", "170031.593000", "170033.593000", "170035.593000", "170037.593000", "170039.593000", "170041.593000", "170043.593000", "170045.593000", "170047.593000", "170049.593000", "170051.593000", "170053.593000", "170055.593000", "170057.593000", "170059.593000", "170101.593000", "170103.593000", "170105.593000", "170107.593000", "170109.593000", "170111.593000", "170113.593000", "170115.593000", "170117.593000", "170119.593000", "170121.593000", "170123.593000", "170125.593000", "170127.593000", "170129.593000", "170131.593000", "170133.593000", "170135.593000", "170137.593000", "170139.593000", "170141.593000", "170143.593000", "170145.593000", "170147.593000", "170150.093000", "170151.593000", "170153.593000", "170155.593000", "170157.593000", "170159.593000", "170201.593000", "170203.593000", "170205.593000", "170207.593000", "170209.593000", "170211.593000", "170213.593000", "170215.593000", "170217.593000", "170219.593000", "170222.093000", "170223.593000", "170225.593000", "170227.593000", "170229.593000", "170231.593000", "170233.593000", "170235.593000", "170237.593000", "170239.593000", "170241.593000", "170243.593000", "170245.593000", "170247.593000", "170249.593000", "170251.593000", "170254.093000", "170255.593000", "170257.593000", "170259.593000", "170301.593000", "170303.593000", "170305.593000", "170307.593000", "170309.593000", "170311.593000", "170313.593000", "170315.593000", "170317.593000", "170319.593000", "170321.593000", "170323.593000", "170325.593000", "170327.593000", "170329.593000", "170331.593000", "170333.593000", "170335.593000", "170337.593000", "170340.093000", "170341.593000", "170343.593000", "170345.593000", "170348.093000", "170349.593000", "170351.593000", "170353.593000", "170355.593000", "170357.593000", "170359.593000", "170401.593000", "170403.593000", "170405.593000", "170407.593000", "170409.593000", "170411.593000", "170413.593000", "170415.593000", "170417.593000", "170419.593000", "170421.593000", "170423.593000", "170425.593000", "170427.593000", "170429.593000", "170431.593000", "170433.593000", "170435.593000", "170437.593000", "170439.593000", "170441.593000", "170443.593000", "170445.593000", "170447.593000", "170449.593000", "170451.593000", "170453.593000", "170455.593000", "170457.593000", "170459.593000", "170501.593000", "170503.593000", "170505.593000", "170507.593000", "170509.593000", "170511.593000", "170513.593000", "170515.421000"],
      "InstanceCreationTime": ["165817.609000", "165819.593000", "165821.593000", "165823.593000", "165825.593000", "165827.593000", "165829.593000", "165831.593000", "165833.593000", "165835.593000", "165837.593000", "165839.593000", "165841.593000", "165843.593000", "165845.593000", "165847.593000", "165849.593000", "165851.593000", "165853.593000", "165856.093000", "165857.593000", "165859.593000", "165901.593000", "165903.593000", "165905.593000", "165907.593000", "165909.593000", "165911.593000", "165913.593000", "165915.593000", "165917.593000", "165919.593000", "165921.593000", "165923.593000", "165925.593000", "165927.593000", "165929.593000", "165931.593000", "165933.593000", "165935.593000", "165937.593000", "165939.593000", "165941.593000", "165943.593000", "165945.593000", "165947.593000", "165949.593000", "165951.593000", "165953.593000", "165955.593000", "165957.593000", "165959.593000", "170001.593000", "170003.593000", "170006.093000", "170007.593000", "170009.593000", "170011.593000", "170013.593000", "170015.593000", "170017.593000", "170019.593000", "170021.593000", "170023.593000", "170025.593000", "170027.593000", "170029.593000", "170031.593000", "170033.593000", "170035.593000", "170037.593000", "170039.593000", "170041.593000", "170043.593000", "170045.593000", "170047.593000", "170049.593000", "170051.593000", "170053.593000", "170055.593000", "170057.593000", "170059.593000", "170101.593000", "170103.593000", "170105.593000", "170107.593000", "170109.593000", "170111.593000", "170113.593000", "170115.593000", "170117.593000", "170119.593000", "170121.593000", "170123.593000", "170125.593000", "170127.593000", "170129.593000", "170131.593000", "170133.593000", "170135.593000", "170137.593000", "170139.593000", "170141.593000", "170143.593000", "170145.593000", "170147.593000", "170150.093000", "170151.593000", "170153.593000", "170155.593000", "170157.593000", "170159.593000", "170201.593000", "170203.593000", "170205.593000", "170207.593000", "170209.593000", "170211.593000", "170213.593000", "170215.593000", "170217.593000", "170219.593000", "170222.093000", "170223.593000", "170225.593000", "170227.593000", "170229.593000", "170231.593000", "170233.593000", "170235.593000", "170237.593000", "170239.593000", "170241.593000", "170243.593000", "170245.593000", "170247.593000", "170249.593000", "170251.593000", "170254.093000", "170255.593000", "170257.593000", "170259.593000", "170301.593000", "170303.593000", "170305.593000", "170307.593000", "170309.593000", "170311.593000", "170313.593000", "170315.593000", "170317.593000", "170319.593000", "170321.593000", "170323.593000", "170325.593000", "170327.593000", "170329.593000", "170331.593000", "170333.593000", "170335.593000", "170337.593000", "170340.093000", "170341.593000", "170343.593000", "170345.593000", "170348.093000", "170349.593000", "170351.593000", "170353.593000", "170355.593000", "170357.593000", "170359.593000", "170401.593000", "170403.593000", "170405.593000", "170407.593000", "170409.593000", "170411.593000", "170413.593000", "170415.593000", "170417.593000", "170419.593000", "170421.593000", "170423.593000", "170425.593000", "170427.593000", "170429.593000", "170431.593000", "170433.593000", "170435.593000", "170437.593000", "170439.593000", "170441.593000", "170443.593000", "170445.593000", "170447.593000", "170449.593000", "170451.593000", "170453.593000", "170455.593000", "170457.593000", "170459.593000", "170501.593000", "170503.593000", "170505.593000", "170507.593000", "170509.593000", "170511.593000", "170513.593000", "170515.421000"],
      "InstanceNumber": [1, 2, 3, 4, 5, 6, 7, 8, 9, 10, 11, 12, 13, 14, 15, 16, 17, 18, 19, 20, 21, 22, 23, 24, 25, 26, 27, 28, 29, 30, 31, 32, 33, 34, 35, 36, 37, 38, 39, 40, 41, 42, 43, 44, 45, 46, 47, 48, 49, 50, 51, 52, 53, 54, 55, 56, 57, 58, 59, 60, 61, 62, 63, 64, 65, 66, 67, 68, 69, 70, 71, 72, 73, 74, 75, 76, 77, 78, 79, 80, 81, 82, 83, 84, 85, 86, 87, 88, 89, 90, 91, 92, 93, 94, 95, 96, 97, 98, 99, 100, 101, 102, 103, 104, 105, 106, 107, 108, 109, 110, 111, 112, 113, 114, 115, 116, 117, 118, 119, 120, 121, 122, 123, 124, 125, 126, 127, 128, 129, 130, 131, 132, 133, 134, 135, 136, 137, 138, 139, 140, 141, 142, 143, 144, 145, 146, 147, 148, 149, 150, 151, 152, 153, 154, 155, 156, 157, 158, 159, 160, 161, 162, 163, 164, 165, 166, 167, 168, 169, 170, 171, 172, 173, 174, 175, 176, 177, 178, 179, 180, 181, 182, 183, 184, 185, 186, 187, 188, 189, 190, 191, 192, 193, 194, 195, 196, 197, 198, 199, 200, 201, 202, 203, 204, 205, 206, 207, 208, 209, 210],
      "LargestImagePixelValue": [1717, 1677, 1645, 1630, 1631, 1813, 1613, 1611, 1797, 1629, 1615, 1624, 1628, 1642, 1602, 1593, 1614, 1629, 1628, 1699, 1648, 1695, 1651, 1638, 1727, 1597, 1629, 1615, 1643, 1640, 1683, 1652, 1627, 1644, 1649, 1686, 1776, 1618, 1657, 1620, 1630, 1616, 1826, 1633, 1607, 1590, 1612, 1621, 1608, 1620, 1616, 1637, 1585, 1603, 1803, 1621, 1616, 1623, 1601, 1607, 1611, 1630, 1619, 1612, 1612, 1614, 1601, 1581, 1601, 1783, 1605, 1612, 1649, 1644, 1658, 1633, 1738, 1603, 1715, 1593, 1604, 1604, 1629, 1626, 1625, 1665, 1688, 1624, 1626, 1825, 1868, 1620, 1622, 1647, 1595, 1611, 1634, 1615, 1620, 1634, 1656, 1822, 1840, 1608, 1589, 1593, 1650, 1611, 1605, 1678, 1620, 1639, 1660, 1614, 1652, 1668, 1660, 1706, 1631, 1645, 1636, 1633, 1646, 1821, 1710, 1614, 1629, 1626, 1641, 1639, 1768, 1651, 1642, 1674, 1702, 1629, 1759, 1751, 1637, 1602, 1618, 1653, 1637, 1605, 1610, 1661, 1649, 1644, 1643, 1634, 1624, 1658, 1650, 1809, 1631, 1639, 1641, 1663, 1952, 1619, 1643, 1630, 1596, 1644, 1680, 1629, 1610, 1794, 1837, 1643, 1622, 1645, 1637, 1635, 1647, 1630, 1642, 1650, 1624, 1633, 1630, 1645, 1625, 1670, 1623, 1691, 1609, 1691, 1664, 1634, 1626, 1634, 1628, 1609, 1660, 1646, 1614, 1621, 1645, 1692, 1632, 1641, 1645, 1604, 1621, 1604, 1597, 1599, 1635, 1638],
      "WindowCenter": [730.0, 727.0, 727.0, 727.0, 726.0, 726.0, 727.0, 728.0, 727.0, 726.0, 726.0, 726.0, 726.0, 726.0, 725.0, 725.0, 726.0, 727.0, 726.0, 726.0, 727.0, 729.0, 729.0, 726.0, 724.0, 725.0, 727.0, 727.0, 727.0, 727.0, 727.0, 728.0, 730.0, 731.0, 729.0, 726.0, 725.0, 725.0, 726.0, 726.0, 726.0, 725.0, 726.0, 726.0, 726.0, 725.0, 725.0, 725.0, 725.0, 725.0, 725.0, 728.0, 727.0, 726.0, 726.0, 726.0, 727.0, 728.0, 727.0, 726.0, 725.0, 725.0, 726.0, 726.0, 725.0, 725.0, 725.0, 726.0, 726.0, 726.0, 725.0, 726.0, 728.0, 730.0, 734.0, 733.0, 730.0, 727.0, 725.0, 724.0, 725.0, 726.0, 727.0, 728.0, 728.0, 729.0, 730.0, 732.0, 731.0, 730.0, 728.0, 727.0, 728.0, 728.0, 726.0, 726.0, 726.0, 726.0, 728.0, 731.0, 730.0, 728.0, 727.0, 725.0, 725.0, 726.0, 727.0, 726.0, 727.0, 730.0, 729.0, 729.0, 728.0, 727.0, 729.0, 731.0, 731.0, 729.0, 726.0, 726.0, 727.0, 730.0, 730.0, 729.0, 726.0, 725.0, 725.0, 728.0, 728.0, 728.0, 729.0, 728.0, 729.0, 731.0, 733.0, 734.0, 731.0, 729.0, 727.0, 727.0, 728.0, 728.0, 728.0, 728.0, 729.0, 729.0, 728.0, 728.0, 729.0, 729.0, 729.0, 730.0, 731.0, 731.0, 730.0, 730.0, 730.0, 730.0, 731.0, 730.0, 731.0, 730.0, 730.0, 731.0, 734.0, 732.0, 728.0, 728.0, 727.0, 726.0, 726.0, 726.0, 727.0, 727.0, 727.0, 729.0, 729.0, 730.0, 729.0, 731.0, 731.0, 734.0, 733.0, 731.0, 728.0, 727.0, 727.0, 727.0, 726.0, 728.0, 730.0, 729.0, 728.0, 728.0, 730.0, 731.0, 730.0, 729.0, 731.0, 731.0, 731.0, 731.0, 732.0, 732.0, 734.0, 733.0, 732.0, 732.0, 735.0, 737.0],
      "WindowWidth": [1522.0, 1515.0, 1515.0, 1515.0, 1511.0, 1512.0, 1515.0, 1516.0, 1515.0, 1511.0, 1511.0, 1511.0, 1513.0, 1511.0, 1509.0, 1510.0, 1514.0, 1513.0, 1512.0, 1512.0, 1514.0, 1519.0, 1519.0, 1512.0, 1507.0, 1509.0, 1514.0, 1514.0, 1514.0, 1513.0, 1513.0, 1517.0, 1522.0, 1523.0, 1518.0, 1512.0, 1511.0, 1509.0, 1512.0, 1512.0, 1513.0, 1511.0, 1511.0, 1511.0, 1512.0, 1510.0, 1511.0, 1510.0, 1509.0, 1509.0, 1511.0, 1517.0, 1515.0, 1512.0, 1513.0, 1512.0, 1515.0, 1517.0, 1514.0, 1512.0, 1509.0, 1509.0, 1513.0, 1513.0, 1510.0, 1509.0, 1511.0, 1512.0, 1513.0, 1514.0, 1511.0, 1513.0, 1517.0, 1520.0, 1530.0, 1528.0, 1521.0, 1514.0, 1509.0, 1507.0, 1511.0, 1513.0, 1513.0, 1516.0, 1517.0, 1520.0, 1522.0, 1527.0, 1524.0, 1521.0, 1517.0, 1514.0, 1516.0, 1515.0, 1512.0, 1511.0, 1511.0, 1512.0, 1517.0, 1524.0, 1522.0, 1516.0, 1514.0, 1509.0, 1510.0, 1511.0, 1514.0, 1513.0, 1516.0, 1522.0, 1520.0, 1517.0, 1515.0, 1513.0, 1518.0, 1524.0, 1523.0, 1518.0, 1512.0, 1511.0, 1515.0, 1522.0, 1521.0, 1519.0, 1512.0, 1508.0, 1511.0, 1516.0, 1516.0, 1517.0, 1518.0, 1516.0, 1518.0, 1524.0, 1529.0, 1530.0, 1524.0, 1519.0, 1515.0, 1514.0, 1515.0, 1517.0, 1518.0, 1517.0, 1518.0, 1519.0, 1517.0, 1517.0, 1519.0, 1519.0, 1519.0, 1521.0, 1523.0, 1524.0, 1521.0, 1520.0, 1521.0, 1522.0, 1523.0, 1521.0, 1522.0, 1522.0, 1522.0, 1525.0, 1531.0, 1525.0, 1517.0, 1516.0, 1514.0, 1511.0, 1511.0, 1513.0, 1514.0, 1513.0, 1515.0, 1518.0, 1521.0, 1522.0, 1520.0, 1523.0, 1524.0, 1531.0, 1530.0, 1524.0, 1516.0, 1514.0, 1513.0, 1513.0, 1512.0, 1517.0, 1522.0, 1520.0, 1516.0, 1518.0, 1522.0, 1524.0, 1520.0, 1520.0, 1523.0, 1524.0, 1522.0, 1524.0, 1526.0, 1527.0, 1530.0, 1529.0, 1526.0, 1526.0, 1535.0, 1537.0]
    },
    "slices": {}
  }
}