{
  "AcquisitionMatrixPE": 64,
  "AcquisitionNumber": 1,
  "AcquisitionTime": "17:53:34.107500",
  "BandwidthPerPixelPhaseEncode": 30.637,
  "BaseResolution": 64,
  "BidsGuess": [
    "func",
    "_acq-epfid2_dir-AP_run-11_bold"
],
  "CoilCombinationMethod": "Sum of Squares",
  "CoilString": "C:HEA;HEP",
  "ConversionSoftware": "dcm2niix",
  "ConversionSoftwareVersion": "v1.0.20240202",
  "DerivedVendorReportedEchoSpacing": 0.000510004,
  "DeviceSerialNumber": "35119",
  "DwellTime": 3.5e-06,
  "EchoTime": 0.03,
  "EffectiveEchoSpacing": 0.000510004,
  "FlipAngle": 78,
  "HeudiconvVersion": "1.1.6",
  "ImageComments": "V",
  "ImageOrientationPatientDICOM": [1, 0, 0, 0, 0.895712, -0.444635],
  "ImageOrientationText": "Tra>Cor(-26.4)",
  "ImageType": [
    "ORIGINAL",
    "PRIMARY",
    "M",
    "ND",
    "MOSAIC"
],
  "ImagingFrequency": 123.251838,
  "InPlanePhaseEncodingDirectionDICOM": "COL",
  "InstitutionAddress": "Chaucer Road  15,Cambridge,UK,GB,CB2 2EF",
  "InstitutionName": "MRC-CBU",
  "MRAcquisitionType": "2D",
  "MagneticFieldStrength": 3,
  "Manufacturer": "Siemens",
  "ManufacturersModelName": "TrioTim",
  "MatrixCoilMode": "SENSE",
  "Modality": "MR",
  "NonlinearGradientCorrection": false,
  "PartialFourier": 1,
  "PatientPosition": "HFS",
  "PercentPhaseFOV": 100,
  "PercentSampling": 100,
  "PhaseEncodingDirection": "j-",
  "PhaseEncodingSteps": 64,
  "PhaseResolution": 1,
  "PixelBandwidth": 2230,
  "ProcedureStepDescription": "CBU^Neuroimaging",
  "ProtocolName": "CBU_DWEPI_BOLD210",
  "PulseSequenceDetails": "%SiemensSeq%\\ep2d_bold",
  "ReceiveCoilName": "HeadMatrix",
  "ReconMatrixPE": 64,
  "RepetitionTime": 2,
  "SAR": 0.139965,
  "ScanOptions": "FS",
  "ScanningSequence": "EP",
  "SequenceName": "*epfid2d1_64",
  "SequenceVariant": "SK",
  "SeriesDescription": "CBU_DWEPI_BOLD210",
  "SeriesNumber": 11,
  "ShimSetting": [-7803, -8785, -2005, 848, 238, -258, 33, 66],
  "SliceThickness": 3,
  "SliceTiming": [0, 1.035, 0.06, 1.095, 0.1225, 1.155, 0.1825, 1.2175, 0.2425, 1.2775, 0.305, 1.3375, 0.365, 1.4, 0.425, 1.46, 0.4875, 1.52, 0.5475, 1.5825, 0.6075, 1.6425, 0.67, 1.7025, 0.73, 1.765, 0.79, 1.825, 0.8525, 1.885, 0.9125, 1.9475, 0.9725],
  "SoftwareVersions": "syngo MR B15",
  "SpacingBetweenSlices": 3.75,
  "StationName": "MRC35119",
  "TaskName": "faceprocessing",
  "TotalReadoutTime": 0.0321303,
  "TxRefAmp": 328.238,
  "dcmmeta_affine": [
    [-3.0, 0.0, 0.0, 100.56779479980469],
    [0.0, 2.687135934829712, -1.6673812866210938, -45.853267669677734],
    [0.0, 1.3339049816131592, 3.358920097351074, -79.71350860595703],
    [0.0, 0.0, 0.0, 1.0]
],
  "dcmmeta_reorient_transform": [
    [0.0, -1.0, 0.0, 63.0],
    [1.0, 0.0, 0.0, 0.0],
    [0.0, 0.0, 1.0, 0.0],
    [0.0, 0.0, 0.0, 1.0]
],
  "dcmmeta_shape": [64, 64, 33, 210],
  "dcmmeta_slice_dim": 2,
  "dcmmeta_version": 0.6,
  "global": {
    "const": {
      "AcquisitionMatrix": [64, 0, 0, 64],
      "AngioFlag": "N",
      "BitsAllocated": 16,
      "BitsStored": 12,
      "Columns": 384,
      "EchoNumbers": 1,
      "EchoTime": 30.0,
      "EchoTrainLength": 1,
      "FlipAngle": 78.0,
      "HighBit": 11,
      "ImageOrientationPatient": [1.0, 0.0, 0.0, 0.0, 0.895712, -0.444635],
      "ImagePositionPatient": [-580.567797, -553.378059, 217.747304],
      "ImageType": [
        "ORIGINAL",
        "PRIMARY",
        "M",
        "ND",
        "MOSAIC"
],
      "ImagedNucleus": "1H",
      "ImagingFrequency": 123.251838,
      "InPlanePhaseEncodingDirection": "COL",
      "MRAcquisitionType": "2D",
      "MagneticFieldStrength": 3.0,
      "Manufacturer": "SIEMENS",
      "ManufacturerModelName": "TrioTim",
      "Modality": "MR",
      "NumberOfAverages": 1.0,
      "NumberOfPhaseEncodingSteps": 64,
      "PercentPhaseFieldOfView": 100.0,
      "PercentSampling": 100.0,
      "PerformedProcedureStepStartTime": "164150.281000",
      "PhotometricInterpretation": "MONOCHROME2",
      "PixelAspectRatio": [1, 1],
      "PixelBandwidth": 2230.0,
      "PixelRepresentation": 0,
      "PixelSpacing": [3.0, 3.0],
      "ProtocolName": "CBU_DWEPI_BOLD210",
      "RepetitionTime": 2000.0,
      "Rows": 384,
      "SAR": 0.139965,
      "SamplesPerPixel": 1,
      "ScanOptions": "FS",
      "ScanningSequence": "EP",
      "SequenceName": "*epfid2d1_64",
      "SequenceVariant": "SK",
      "SeriesDescription": "CBU_DWEPI_BOLD210",
      "SeriesNumber": 11,
      "SeriesTime": "175337.031000",
      "SliceLocation": -51.012533,
      "SliceThickness": 3.0,
      "SmallestImagePixelValue": 0,
      "SoftwareVersions": "syngo MR B15",
      "SpacingBetweenSlices": 3.75,
      "SpecificCharacterSet": "ISO_IR 100",
      "StudyID": "1",
      "StudyTime": "164150.218000",
      "TransmitCoilName": "Body",
      "VariableFlipAngleFlag": "N",
      "WindowCenterWidthExplanation": "Algo1",
      "dBdt": 0.0},
    "slices": {}
  },
  "time": {
    "samples": {
      "AcquisitionNumber": [1, 2, 3, 4, 5, 6, 7, 8, 9, 10, 11, 12, 13, 14, 15, 16, 17, 18, 19, 20, 21, 22, 23, 24, 25, 26, 27, 28, 29, 30, 31, 32, 33, 34, 35, 36, 37, 38, 39, 40, 41, 42, 43, 44, 45, 46, 47, 48, 49, 50, 51, 52, 53, 54, 55, 56, 57, 58, 59, 60, 61, 62, 63, 64, 65, 66, 67, 68, 69, 70, 71, 72, 73, 74, 75, 76, 77, 78, 79, 80, 81, 82, 83, 84, 85, 86, 87, 88, 89, 90, 91, 92, 93, 94, 95, 96, 97, 98, 99, 100, 101, 102, 103, 104, 105, 106, 107, 108, 109, 110, 111, 112, 113, 114, 115, 116, 117, 118, 119, 120, 121, 122, 123, 124, 125, 126, 127, 128, 129, 130, 131, 132, 133, 134, 135, 136, 137, 138, 139, 140, 141, 142, 143, 144, 145, 146, 147, 148, 149, 150, 151, 152, 153, 154, 155, 156, 157, 158, 159, 160, 161, 162, 163, 164, 165, 166, 167, 168, 169, 170, 171, 172, 173, 174, 175, 176, 177, 178, 179, 180, 181, 182, 183, 184, 185, 186, 187, 188, 189, 190, 191, 192, 193, 194, 195, 196, 197, 198, 199, 200, 201, 202, 203, 204, 205, 206, 207, 208, 209, 210],
      "AcquisitionTime": ["175334.107500", "175336.115000", "175338.122500", "175340.132500", "175342.140000", "175344.147500", "175346.155000", "175348.162500", "175350.172500", "175352.180000", "175354.187500", "175356.195000", "175358.205000", "175400.212500", "175402.220000", "175404.227500", "175406.235000", "175408.245000", "175410.252500", "175412.260000", "175414.267500", "175416.275000", "175418.285000", "175420.292500", "175422.300000", "175424.307500", "175426.315000", "175428.325000", "175430.332500", "175432.340000", "175434.347500", "175436.357500", "175438.365000", "175440.372500", "175442.380000", "175444.387500", "175446.397500", "175448.405000", "175450.412500", "175452.420000", "175454.427500", "175456.437500", "175458.445000", "175500.452500", "175502.460000", "175504.470000", "175506.477500", "175508.485000", "175510.492500", "175512.500000", "175514.510000", "175516.517500", "175518.525000", "175520.532500", "175522.540000", "175524.550000", "175526.557500", "175528.565000", "175530.572500", "175532.582500", "175534.590000", "175536.597500", "175538.605000", "175540.612500", "175542.622500", "175544.630000", "175546.637500", "175548.645000", "175550.652500", "175552.662500", "175554.670000", "175556.677500", "175558.685000", "175600.695000", "175602.702500", "175604.710000", "175606.717500", "175608.725000", "175610.735000", "175612.742500", "175614.750000", "175616.757500", "175618.765000", "175620.775000", "175622.782500", "175624.790000", "175626.797500", "175628.805000", "175630.815000", "175632.822500", "175634.830000", "175636.837500", "175638.847500", "175640.855000", "175642.862500", "175644.870000", "175646.877500", "175648.887500", "175650.895000", "175652.902500", "175654.910000", "175656.917500", "175658.927500", "175700.935000", "175702.942500", "175704.950000", "175706.960000", "175708.967500", "175710.975000", "175712.982500", "175714.990000", "175717.000000", "175719.007500", "175721.015000", "175723.022500", "175725.030000", "175727.040000", "175729.047500", "175731.055000", "175733.062500", "175735.072500", "175737.080000", "175739.087500", "175741.095000", "175743.102500", "175745.112500", "175747.120000", "175749.127500", "175751.135000", "175753.142500", "175755.152500", "175757.160000", "175759.167500", "175801.175000", "175803.182500", "175805.192500", "175807.200000", "175809.207500", "175811.215000", "175813.225000", "175815.232500", "175817.240000", "175819.247500", "175821.255000", "175823.265000", "175825.272500", "175827.280000", "175829.287500", "175831.295000", "175833.305000", "175835.312500", "175837.320000", "175839.327500", "175841.337500", "175843.345000", "175845.352500", "175847.360000", "175849.367500", "175851.377500", "175853.385000", "175855.392500", "175857.400000", "175859.407500", "175901.417500", "175903.425000", "175905.432500", "175907.440000", "175909.450000", "175911.457500", "175913.465000", "175915.472500", "175917.480000", "175919.490000", "175921.497500", "175923.505000", "175925.512500", "175927.520000", "175929.530000", "175931.537500", "175933.545000", "175935.552500", "175937.560000", "175939.570000", "175941.577500", "175943.585000", "175945.592500", "175947.602500", "175949.610000", "175951.617500", "175953.625000", "175955.632500", "175957.642500", "175959.650000", "180001.657500", "180003.665000", "180005.672500", "180007.682500", "180009.690000", "180011.697500", "180013.705000", "180015.715000", "180017.722500", "180019.730000", "180021.737500", "180023.745000", "180025.755000", "180027.762500", "180029.770000", "180031.777500", "180033.785000"],
      "ContentTime": ["175337.031000", "175339.031000", "175341.531000", "175343.031000", "175345.031000", "175347.031000", "175349.031000", "175351.031000", "175353.031000", "175355.031000", "175357.031000", "175359.031000", "175401.531000", "175403.031000", "175405.031000", "175407.031000", "175409.031000", "175411.031000", "175413.031000", "175415.031000", "175417.031000", "175419.031000", "175421.031000", "175423.031000", "175425.031000", "175427.031000", "175429.031000", "175431.031000", "175433.031000", "175435.031000", "175437.031000", "175439.031000", "175441.031000", "175443.031000", "175445.031000", "175447.031000", "175449.031000", "175451.031000", "175453.031000", "175455.031000", "175457.031000", "175459.031000", "175501.031000", "175503.031000", "175505.031000", "175507.031000", "175509.031000", "175511.031000", "175513.031000", "175515.031000", "175517.031000", "175519.031000", "175521.031000", "175523.031000", "175525.031000", "175527.031000", "175529.031000", "175531.031000", "175533.031000", "175535.031000", "175537.031000", "175539.031000", "175541.031000", "175543.031000", "175545.031000", "175547.031000", "175549.031000", "175551.031000", "175553.031000", "175555.031000", "175557.031000", "175559.031000", "175601.031000", "175603.531000", "175605.031000", "175607.031000", "175609.031000", "175611.031000", "175613.031000", "175615.531000", "175617.031000", "175619.031000", "175621.031000", "175623.531000", "175625.031000", "175627.031000", "175629.031000", "175631.031000", "175633.031000", "175635.031000", "175637.031000", "175639.031000", "175641.031000", "175643.031000", "175645.031000", "175647.031000", "175649.031000", "175651.031000", "175653.031000", "175655.531000", "175657.031000", "175659.031000", "175701.031000", "175703.031000", "175705.031000", "175707.031000", "175709.031000", "175711.031000", "175713.031000", "175715.531000", "175717.031000", "175719.031000", "175721.031000", "175723.031000", "175725.031000", "175727.031000", "175729.031000", "175731.031000", "175733.031000", "175735.531000", "175737.531000", "175739.031000", "175741.531000", "175743.031000", "175745.031000", "175747.031000", "175749.031000", "175751.031000", "175753.031000", "175755.031000", "175757.531000", "175759.031000", "175801.031000", "175803.531000", "175805.031000", "175807.031000", "175809.031000", "175811.031000", "175813.031000", "175815.031000", "175817.031000", "175819.531000", "175821.031000", "175823.031000", "175825.031000", "175827.531000", "175829.031000", "175831.031000", "175833.031000", "175835.031000", "175837.031000", "175839.531000", "175841.031000", "175843.031000", "175845.031000", "175847.031000", "175849.031000", "175851.031000", "175853.031000", "175855.031000", "175857.031000", "175859.031000", "175901.031000", "175903.031000", "175905.031000", "175907.031000", "175909.031000", "175911.031000", "175913.031000", "175915.031000", "175917.531000", "175919.031000", "175921.531000", "175923.031000", "175925.031000", "175927.031000", "175929.031000", "175931.031000", "175933.031000", "175935.031000", "175937.031000", "175939.031000", "175941.031000", "175943.031000", "175945.531000", "175947.031000", "175949.031000", "175951.031000", "175953.031000", "175955.031000", "175957.031000", "175959.031000", "180001.031000", "180003.031000", "180005.031000", "180007.031000", "180009.031000", "180011.031000", "180013.031000", "180015.031000", "180017.031000", "180019.031000", "180021.031000", "180023.031000", "180025.031000", "180027.031000", "180029.031000", "180031.031000", "180033.031000", "180035.031000"],
      "InstanceCreationTime": ["175337.031000", "175339.031000", "175341.531000", "175343.031000", "175345.031000", "175347.031000", "175349.031000", "175351.031000", "175353.031000", "175355.031000", "175357.031000", "175359.031000", "175401.531000", "175403.031000", "175405.031000", "175407.031000", "175409.031000", "175411.031000", "175413.031000", "175415.031000", "175417.031000", "175419.031000", "175421.031000", "175423.031000", "175425.031000", "175427.031000", "175429.031000", "175431.031000", "175433.031000", "175435.031000", "175437.031000", "175439.031000", "175441.031000", "175443.031000", "175445.031000", "175447.031000", "175449.031000", "175451.031000", "175453.031000", "175455.031000", "175457.031000", "175459.031000", "175501.031000", "175503.031000", "175505.031000", "175507.031000", "175509.031000", "175511.031000", "175513.031000", "175515.031000", "175517.031000", "175519.031000", "175521.031000", "175523.031000", "175525.031000", "175527.031000", "175529.031000", "175531.031000", "175533.031000", "175535.031000", "175537.031000", "175539.031000", "175541.031000", "175543.031000", "175545.031000", "175547.031000", "175549.031000", "175551.031000", "175553.031000", "175555.031000", "175557.031000", "175559.031000", "175601.031000", "175603.531000", "175605.031000", "175607.031000", "175609.031000", "175611.031000", "175613.031000", "175615.531000", "175617.031000", "175619.031000", "175621.031000", "175623.531000", "175625.031000", "175627.031000", "175629.031000", "175631.031000", "175633.031000", "175635.031000", "175637.031000", "175639.031000", "175641.031000", "175643.031000", "175645.031000", "175647.031000", "175649.031000", "175651.031000", "175653.031000", "175655.531000", "175657.031000", "175659.031000", "175701.031000", "175703.031000", "175705.031000", "175707.031000", "175709.031000", "175711.031000", "175713.031000", "175715.531000", "175717.031000", "175719.031000", "175721.031000", "175723.031000", "175725.031000", "175727.031000", "175729.031000", "175731.031000", "175733.031000", "175735.531000", "175737.531000", "175739.031000", "175741.531000", "175743.031000", "175745.031000", "175747.031000", "175749.031000", "175751.031000", "175753.031000", "175755.031000", "175757.531000", "175759.031000", "175801.031000", "175803.531000", "175805.031000", "175807.031000", "175809.031000", "175811.031000", "175813.031000", "175815.031000", "175817.031000", "175819.531000", "175821.031000", "175823.031000", "175825.031000", "175827.531000", "175829.031000", "175831.031000", "175833.031000", "175835.031000", "175837.031000", "175839.531000", "175841.031000", "175843.031000", "175845.031000", "175847.031000", "175849.031000", "175851.031000", "175853.031000", "175855.031000", "175857.031000", "175859.031000", "175901.031000", "175903.031000", "175905.031000", "175907.031000", "175909.031000", "175911.031000", "175913.031000", "175915.031000", "175917.531000", "175919.031000", "175921.531000", "175923.031000", "175925.031000", "175927.031000", "175929.031000", "175931.031000", "175933.031000", "175935.031000", "175937.031000", "175939.031000", "175941.031000", "175943.031000", "175945.531000", "175947.031000", "175949.031000", "175951.031000", "175953.031000", "175955.031000", "175957.031000", "175959.031000", "180001.031000", "180003.031000", "180005.031000", "180007.031000", "180009.031000", "180011.031000", "180013.031000", "180015.031000", "180017.031000", "180019.031000", "180021.031000", "180023.031000", "180025.031000", "180027.031000", "180029.031000", "180031.031000", "180033.031000", "180035.031000"],
      "InstanceNumber": [1, 2, 3, 4, 5, 6, 7, 8, 9, 10, 11, 12, 13, 14, 15, 16, 17, 18, 19, 20, 21, 22, 23, 24, 25, 26, 27, 28, 29, 30, 31, 32, 33, 34, 35, 36, 37, 38, 39, 40, 41, 42, 43, 44, 45, 46, 47, 48, 49, 50, 51, 52, 53, 54, 55, 56, 57, 58, 59, 60, 61, 62, 63, 64, 65, 66, 67, 68, 69, 70, 71, 72, 73, 74, 75, 76, 77, 78, 79, 80, 81, 82, 83, 84, 85, 86, 87, 88, 89, 90, 91, 92, 93, 94, 95, 96, 97, 98, 99, 100, 101, 102, 103, 104, 105, 106, 107, 108, 109, 110, 111, 112, 113, 114, 115, 116, 117, 118, 119, 120, 121, 122, 123, 124, 125, 126, 127, 128, 129, 130, 131, 132, 133, 134, 135, 136, 137, 138, 139, 140, 141, 142, 143, 144, 145, 146, 147, 148, 149, 150, 151, 152, 153, 154, 155, 156, 157, 158, 159, 160, 161, 162, 163, 164, 165, 166, 167, 168, 169, 170, 171, 172, 173, 174, 175, 176, 177, 178, 179, 180, 181, 182, 183, 184, 185, 186, 187, 188, 189, 190, 191, 192, 193, 194, 195, 196, 197, 198, 199, 200, 201, 202, 203, 204, 205, 206, 207, 208, 209, 210],
      "LargestImagePixelValue": [1762, 1723, 1713, 1676, 1669, 1678, 1660, 1649, 1640, 1650, 1682, 1683, 1677, 1680, 1712, 1800, 1625, 1641, 1627, 1657, 1680, 1719, 1674, 1651, 1663, 1655, 1635, 1649, 1668, 1700, 1764, 1759, 1724, 1648, 1641, 1601, 1638, 1636, 1731, 1691, 1773, 1703, 1646, 1666, 1655, 1643, 1595, 1614, 1698, 1699, 1704, 1791, 1790, 1760, 1721, 1678, 1691, 1678, 1728, 1708, 1734, 1707, 1702, 1694, 1722, 1709, 1697, 1704, 1697, 1703, 1634, 1616, 1617, 1733, 1713, 1680, 1611, 1613, 1674, 1609, 1633, 1668, 1639, 1682, 1679, 1639, 1734, 1640, 1651, 1645, 1694, 1622, 1645, 1720, 1654, 1822, 1630, 1672, 1633, 1647, 1642, 1632, 1638, 1669, 1745, 1619, 1711, 1638, 1633, 1609, 1668, 1667, 1707, 1645, 1656, 1637, 1610, 1596, 1809, 1613, 1598, 1629, 1644, 1635, 1700, 1672, 1646, 1662, 1650, 1644, 1623, 1652, 1644, 1652, 1644, 1678, 1665, 1653, 1654, 1686, 1670, 1648, 1658, 1643, 1651, 1611, 1604, 1685, 1628, 1663, 1656, 1655, 1636, 1663, 1636, 1620, 1672, 1738, 1657, 1681, 1681, 1679, 1666, 1652, 1651, 1623, 1646, 1665, 1608, 1607, 1740, 1601, 1647, 1630, 1588, 1643, 1664, 1625, 1624, 1625, 1673, 1669, 1682, 1689, 1944, 1647, 1661, 1715, 1676, 1660, 1676, 1685, 1658, 1619, 1687, 1662, 1711, 1713, 1708, 1699, 1657, 1687, 1693, 1693, 1679, 1745, 1769, 1734, 1650, 1665],
      "WindowCenter": [726.0, 723.0, 723.0, 722.0, 722.0, 721.0, 720.0, 719.0, 719.0, 720.0, 719.0, 719.0, 721.0, 720.0, 719.0, 719.0, 719.0, 721.0, 722.0, 722.0, 721.0, 720.0, 720.0, 720.0, 720.0, 719.0, 718.0, 719.0, 720.0, 721.0, 722.0, 721.0, 720.0, 721.0, 721.0, 721.0, 721.0, 722.0, 723.0, 723.0, 722.0, 720.0, 719.0, 720.0, 722.0, 719.0, 719.0, 720.0, 720.0, 720.0, 720.0, 722.0, 721.0, 721.0, 720.0, 720.0, 721.0, 721.0, 722.0, 723.0, 722.0, 722.0, 722.0, 722.0, 722.0, 722.0, 721.0, 721.0, 721.0, 721.0, 721.0, 724.0, 722.0, 722.0, 724.0, 722.0, 721.0, 721.0, 721.0, 719.0, 721.0, 722.0, 724.0, 723.0, 721.0, 719.0, 719.0, 719.0, 721.0, 722.0, 722.0, 721.0, 721.0, 722.0, 722.0, 721.0, 719.0, 719.0, 720.0, 723.0, 725.0, 724.0, 722.0, 722.0, 720.0, 719.0, 721.0, 721.0, 720.0, 721.0, 722.0, 723.0, 722.0, 722.0, 722.0, 723.0, 723.0, 722.0, 722.0, 720.0, 720.0, 721.0, 722.0, 722.0, 723.0, 723.0, 723.0, 724.0, 725.0, 723.0, 722.0, 721.0, 720.0, 721.0, 723.0, 724.0, 723.0, 724.0, 722.0, 722.0, 723.0, 723.0, 721.0, 721.0, 719.0, 720.0, 721.0, 723.0, 723.0, 723.0, 723.0, 723.0, 723.0, 724.0, 723.0, 724.0, 724.0, 724.0, 724.0, 726.0, 727.0, 724.0, 723.0, 721.0, 722.0, 722.0, 723.0, 721.0, 719.0, 718.0, 718.0, 717.0, 720.0, 718.0, 718.0, 720.0, 721.0, 720.0, 720.0, 721.0, 721.0, 722.0, 721.0, 724.0, 725.0, 723.0, 723.0, 725.0, 725.0, 725.0, 724.0, 723.0, 722.0, 722.0, 722.0, 722.0, 725.0, 724.0, 724.0, 724.0, 723.0, 724.0, 724.0, 724.0, 723.0, 725.0, 728.0, 726.0, 725.0, 723.0],
      "WindowWidth": [1513.0, 1507.0, 1506.0, 1503.0, 1502.0, 1500.0, 1498.0, 1496.0, 1497.0, 1497.0, 1496.0, 1497.0, 1500.0, 1499.0, 1497.0, 1496.0, 1496.0, 1500.0, 1502.0, 1504.0, 1501.0, 1500.0, 1498.0, 1498.0, 1498.0, 1496.0, 1495.0, 1496.0, 1499.0, 1500.0, 1503.0, 1500.0, 1498.0, 1499.0, 1500.0, 1500.0, 1501.0, 1503.0, 1506.0, 1504.0, 1503.0, 1498.0, 1497.0, 1499.0, 1502.0, 1496.0, 1497.0, 1500.0, 1499.0, 1498.0, 1498.0, 1503.0, 1503.0, 1502.0, 1499.0, 1498.0, 1502.0, 1500.0, 1503.0, 1505.0, 1504.0, 1504.0, 1502.0, 1503.0, 1504.0, 1503.0, 1502.0, 1500.0, 1502.0, 1500.0, 1501.0, 1506.0, 1503.0, 1503.0, 1509.0, 1503.0, 1501.0, 1501.0, 1500.0, 1497.0, 1501.0, 1504.0, 1507.0, 1504.0, 1500.0, 1495.0, 1495.0, 1497.0, 1501.0, 1503.0, 1503.0, 1500.0, 1500.0, 1502.0, 1502.0, 1501.0, 1496.0, 1495.0, 1498.0, 1506.0, 1509.0, 1506.0, 1503.0, 1502.0, 1499.0, 1497.0, 1501.0, 1501.0, 1499.0, 1500.0, 1504.0, 1504.0, 1503.0, 1502.0, 1502.0, 1504.0, 1504.0, 1503.0, 1502.0, 1498.0, 1499.0, 1501.0, 1503.0, 1503.0, 1504.0, 1504.0, 1505.0, 1506.0, 1509.0, 1504.0, 1502.0, 1501.0, 1498.0, 1500.0, 1503.0, 1506.0, 1505.0, 1506.0, 1504.0, 1502.0, 1505.0, 1504.0, 1501.0, 1500.0, 1497.0, 1497.0, 1501.0, 1505.0, 1504.0, 1505.0, 1504.0, 1505.0, 1504.0, 1506.0, 1506.0, 1506.0, 1506.0, 1506.0, 1507.0, 1512.0, 1513.0, 1507.0, 1504.0, 1500.0, 1503.0, 1504.0, 1504.0, 1500.0, 1496.0, 1493.0, 1493.0, 1491.0, 1497.0, 1493.0, 1492.0, 1498.0, 1501.0, 1499.0, 1498.0, 1500.0, 1502.0, 1504.0, 1501.0, 1507.0, 1509.0, 1504.0, 1503.0, 1510.0, 1510.0, 1508.0, 1506.0, 1504.0, 1503.0, 1501.0, 1502.0, 1503.0, 1509.0, 1507.0, 1507.0, 1506.0, 1504.0, 1506.0, 1506.0, 1506.0, 1505.0, 1510.0, 1518.0, 1513.0, 1508.0, 1504.0]
    },
    "slices": {}
  }
}