{
  "AcquisitionMatrixPE": 64,
  "AcquisitionNumber": 1,
  "AcquisitionTime": "10:38:43.485000",
  "BandwidthPerPixelPhaseEncode": 30.637,
  "BaseResolution": 64,
  "BidsGuess": [
    "func",
    "_acq-epfid2_dir-AP_run-8_bold"
],
  "CoilCombinationMethod": "Sum of Squares",
  "CoilString": "C:HEA;HEP",
  "ConversionSoftware": "dcm2niix",
  "ConversionSoftwareVersion": "v1.0.20240202",
  "DerivedVendorReportedEchoSpacing": 0.000510004,
  "DeviceSerialNumber": "35119",
  "DwellTime": 3.5e-06,
  "EchoTime": 0.03,
  "EffectiveEchoSpacing": 0.000510004,
  "FlipAngle": 78,
  "HeudiconvVersion": "1.1.6",
  "ImageComments": "V",
  "ImageOrientationPatientDICOM": [1, 0, 0, 0, 0.904827, -0.425779],
  "ImageOrientationText": "Tra>Cor(-25.2)",
  "ImageType": [
    "ORIGINAL",
    "PRIMARY",
    "M",
    "ND",
    "MOSAIC"
],
  "ImagingFrequency": 123.251802,
  "InPlanePhaseEncodingDirectionDICOM": "COL",
  "InstitutionAddress": "Chaucer Road  15,Cambridge,UK,GB,CB2 2EF",
  "InstitutionName": "MRC-CBU",
  "MRAcquisitionType": "2D",
  "MagneticFieldStrength": 3,
  "Manufacturer": "Siemens",
  "ManufacturersModelName": "TrioTim",
  "MatrixCoilMode": "SENSE",
  "Modality": "MR",
  "NonlinearGradientCorrection": false,
  "PartialFourier": 1,
  "PatientPosition": "HFS",
  "PercentPhaseFOV": 100,
  "PercentSampling": 100,
  "PhaseEncodingDirection": "j-",
  "PhaseEncodingSteps": 64,
  "PhaseResolution": 1,
  "PixelBandwidth": 2230,
  "ProcedureStepDescription": "CBU^Neuroimaging",
  "ProtocolName": "CBU_DWEPI_BOLD210",
  "PulseSequenceDetails": "%SiemensSeq%\\ep2d_bold",
  "ReceiveCoilName": "HeadMatrix",
  "ReconMatrixPE": 64,
  "RepetitionTime": 2,
  "SAR": 0.134505,
  "ScanOptions": "FS",
  "ScanningSequence": "EP",
  "SequenceName": "*epfid2d1_64",
  "SequenceVariant": "SK",
  "SeriesDescription": "CBU_DWEPI_BOLD210",
  "SeriesNumber": 8,
  "ShimSetting": [-7826, -8756, -2054, 827, 86, 418, -65, 142],
  "SliceThickness": 3,
  "SliceTiming": [0, 1.0325, 0.06, 1.095, 0.12, 1.155, 0.1825, 1.215, 0.2425, 1.2775, 0.3025, 1.3375, 0.365, 1.3975, 0.425, 1.46, 0.485, 1.52, 0.5475, 1.58, 0.6075, 1.6425, 0.6675, 1.7025, 0.73, 1.7625, 0.79, 1.825, 0.85, 1.885, 0.9125, 1.945, 0.9725],
  "SoftwareVersions": "syngo MR B15",
  "SpacingBetweenSlices": 3.75,
  "StationName": "MRC35119",
  "TaskName": "faceprocessing",
  "TotalReadoutTime": 0.0321303,
  "TxRefAmp": 300.239,
  "dcmmeta_affine": [
    [-3.0, 0.0, 0.0, 98.03389739990234],
    [0.0, 2.7144811153411865, -1.596671223640442, -50.36967849731445],
    [0.0, 1.2773369550704956, 3.393101215362549, -80.83121490478516],
    [0.0, 0.0, 0.0, 1.0]
],
  "dcmmeta_reorient_transform": [
    [0.0, -1.0, 0.0, 63.0],
    [1.0, 0.0, 0.0, 0.0],
    [0.0, 0.0, 1.0, 0.0],
    [0.0, 0.0, 0.0, 1.0]
],
  "dcmmeta_shape": [64, 64, 33, 210],
  "dcmmeta_slice_dim": 2,
  "dcmmeta_version": 0.6,
  "global": {
    "const": {
      "AcquisitionMatrix": [64, 0, 0, 64],
      "AngioFlag": "N",
      "BitsAllocated": 16,
      "BitsStored": 12,
      "Columns": 384,
      "EchoNumbers": 1,
      "EchoTime": 30.0,
      "EchoTrainLength": 1,
      "FlipAngle": 78.0,
      "HighBit": 11,
      "ImageOrientationPatient": [1.0, 0.0, 0.0, 0.0, 0.904827, -0.425779],
      "ImagePositionPatient": [-578.033898, -554.959586, 204.014934],
      "ImageType": [
        "ORIGINAL",
        "PRIMARY",
        "M",
        "ND",
        "MOSAIC"
],
      "ImagedNucleus": "1H",
      "ImagingFrequency": 123.251802,
      "InPlanePhaseEncodingDirection": "COL",
      "MRAcquisitionType": "2D",
      "MagneticFieldStrength": 3.0,
      "Manufacturer": "SIEMENS",
      "ManufacturerModelName": "TrioTim",
      "Modality": "MR",
      "NumberOfAverages": 1.0,
      "NumberOfPhaseEncodingSteps": 64,
      "PercentPhaseFieldOfView": 100.0,
      "PercentSampling": 100.0,
      "PerformedProcedureStepStartTime": "095125.984000",
      "PhotometricInterpretation": "MONOCHROME2",
      "PixelAspectRatio": [1, 1],
      "PixelBandwidth": 2230.0,
      "PixelRepresentation": 0,
      "PixelSpacing": [3.0, 3.0],
      "ProtocolName": "CBU_DWEPI_BOLD210",
      "RepetitionTime": 2000.0,
      "Rows": 384,
      "SAR": 0.134505,
      "SamplesPerPixel": 1,
      "ScanOptions": "FS",
      "ScanningSequence": "EP",
      "SequenceName": "*epfid2d1_64",
      "SequenceVariant": "SK",
      "SeriesDescription": "CBU_DWEPI_BOLD210",
      "SeriesNumber": 8,
      "SeriesTime": "103846.062000",
      "SliceLocation": -51.692062,
      "SliceThickness": 3.0,
      "SmallestImagePixelValue": 0,
      "SoftwareVersions": "syngo MR B15",
      "SpacingBetweenSlices": 3.75,
      "SpecificCharacterSet": "ISO_IR 100",
      "StudyID": "1",
      "StudyTime": "095125.921000",
      "TransmitCoilName": "Body",
      "VariableFlipAngleFlag": "N",
      "WindowCenterWidthExplanation": "Algo1",
      "dBdt": 0.0},
    "slices": {}
  },
  "time": {
    "samples": {
      "AcquisitionNumber": [1, 2, 3, 4, 5, 6, 7, 8, 9, 10, 11, 12, 13, 14, 15, 16, 17, 18, 19, 20, 21, 22, 23, 24, 25, 26, 27, 28, 29, 30, 31, 32, 33, 34, 35, 36, 37, 38, 39, 40, 41, 42, 43, 44, 45, 46, 47, 48, 49, 50, 51, 52, 53, 54, 55, 56, 57, 58, 59, 60, 61, 62, 63, 64, 65, 66, 67, 68, 69, 70, 71, 72, 73, 74, 75, 76, 77, 78, 79, 80, 81, 82, 83, 84, 85, 86, 87, 88, 89, 90, 91, 92, 93, 94, 95, 96, 97, 98, 99, 100, 101, 102, 103, 104, 105, 106, 107, 108, 109, 110, 111, 112, 113, 114, 115, 116, 117, 118, 119, 120, 121, 122, 123, 124, 125, 126, 127, 128, 129, 130, 131, 132, 133, 134, 135, 136, 137, 138, 139, 140, 141, 142, 143, 144, 145, 146, 147, 148, 149, 150, 151, 152, 153, 154, 155, 156, 157, 158, 159, 160, 161, 162, 163, 164, 165, 166, 167, 168, 169, 170, 171, 172, 173, 174, 175, 176, 177, 178, 179, 180, 181, 182, 183, 184, 185, 186, 187, 188, 189, 190, 191, 192, 193, 194, 195, 196, 197, 198, 199, 200, 201, 202, 203, 204, 205, 206, 207, 208, 209, 210],
      "AcquisitionTime": ["103843.485000", "103845.492500", "103847.500000", "103849.507500", "103851.517500", "103853.525000", "103855.532500", "103857.540000", "103859.547500", "103901.557500", "103903.565000", "103905.572500", "103907.580000", "103909.587500", "103911.597500", "103913.605000", "103915.612500", "103917.620000", "103919.630000", "103921.637500", "103923.645000", "103925.652500", "103927.660000", "103929.670000", "103931.677500", "103933.685000", "103935.692500", "103937.700000", "103939.710000", "103941.717500", "103943.725000", "103945.732500", "103947.742500", "103949.750000", "103951.757500", "103953.765000", "103955.772500", "103957.782500", "103959.790000", "104001.797500", "104003.805000", "104005.812500", "104007.822500", "104009.830000", "104011.837500", "104013.845000", "104015.855000", "104017.862500", "104019.870000", "104021.877500", "104023.885000", "104025.895000", "104027.902500", "104029.910000", "104031.917500", "104033.925000", "104035.935000", "104037.942500", "104039.950000", "104041.957500", "104043.965000", "104045.975000", "104047.982500", "104049.990000", "104051.997500", "104054.007500", "104056.015000", "104058.022500", "104100.030000", "104102.037500", "104104.047500", "104106.055000", "104108.062500", "104110.070000", "104112.077500", "104114.087500", "104116.095000", "104118.102500", "104120.110000", "104122.120000", "104124.127500", "104126.135000", "104128.142500", "104130.150000", "104132.160000", "104134.167500", "104136.175000", "104138.182500", "104140.190000", "104142.200000", "104144.207500", "104146.215000", "104148.222500", "104150.232500", "104152.240000", "104154.247500", "104156.255000", "104158.262500", "104200.272500", "104202.280000", "104204.287500", "104206.295000", "104208.302500", "104210.312500", "104212.320000", "104214.327500", "104216.335000", "104218.342500", "104220.352500", "104222.360000", "104224.367500", "104226.375000", "104228.385000", "104230.392500", "104232.400000", "104234.407500", "104236.415000", "104238.425000", "104240.432500", "104242.440000", "104244.447500", "104246.455000", "104248.465000", "104250.472500", "104252.480000", "104254.487500", "104256.497500", "104258.505000", "104300.512500", "104302.520000", "104304.527500", "104306.537500", "104308.545000", "104310.552500", "104312.560000", "104314.567500", "104316.577500", "104318.585000", "104320.592500", "104322.600000", "104324.610000", "104326.617500", "104328.625000", "104330.632500", "104332.640000", "104334.650000", "104336.657500", "104338.665000", "104340.672500", "104342.680000", "104344.690000", "104346.697500", "104348.705000", "104350.712500", "104352.720000", "104354.730000", "104356.737500", "104358.745000", "104400.752500", "104402.762500", "104404.770000", "104406.777500", "104408.785000", "104410.792500", "104412.802500", "104414.810000", "104416.817500", "104418.825000", "104420.832500", "104422.842500", "104424.850000", "104426.857500", "104428.865000", "104430.875000", "104432.882500", "104434.890000", "104436.897500", "104438.905000", "104440.915000", "104442.922500", "104444.930000", "104446.937500", "104448.945000", "104450.955000", "104452.962500", "104454.970000", "104456.977500", "104458.987500", "104500.995000", "104503.002500", "104505.010000", "104507.017500", "104509.027500", "104511.035000", "104513.042500", "104515.050000", "104517.057500", "104519.067500", "104521.075000", "104523.082500", "104525.090000", "104527.100000", "104529.107500", "104531.115000", "104533.122500", "104535.130000", "104537.140000", "104539.147500", "104541.155000", "104543.162500"],
      "ContentTime": ["103846.078000", "103848.062000", "103850.062000", "103852.062000", "103854.062000", "103856.062000", "103858.062000", "103900.062000", "103902.062000", "103904.062000", "103906.062000", "103908.062000", "103910.062000", "103912.062000", "103914.062000", "103916.062000", "103918.062000", "103920.062000", "103922.062000", "103924.062000", "103926.062000", "103928.062000", "103930.062000", "103932.062000", "103934.062000", "103936.062000", "103938.062000", "103940.062000", "103942.062000", "103944.062000", "103946.062000", "103948.062000", "103950.062000", "103952.062000", "103954.062000", "103956.062000", "103958.062000", "104000.062000", "104002.062000", "104004.062000", "104006.062000", "104008.062000", "104010.062000", "104012.062000", "104014.062000", "104016.062000", "104018.062000", "104020.062000", "104022.062000", "104024.062000", "104026.062000", "104028.062000", "104030.062000", "104032.062000", "104034.062000", "104036.062000", "104038.062000", "104040.062000", "104042.062000", "104044.062000", "104046.062000", "104048.062000", "104050.062000", "104052.062000", "104054.062000", "104056.062000", "104058.062000", "104100.062000", "104102.062000", "104104.062000", "104106.062000", "104108.062000", "104110.062000", "104112.062000", "104114.062000", "104116.062000", "104118.062000", "104120.062000", "104122.062000", "104124.062000", "104126.062000", "104128.062000", "104130.062000", "104132.062000", "104134.062000", "104136.062000", "104138.062000", "104140.062000", "104142.062000", "104144.062000", "104146.062000", "104148.062000", "104150.062000", "104152.062000", "104154.062000", "104156.062000", "104158.062000", "104200.078000", "104202.062000", "104204.062000", "104206.062000", "104208.062000", "104210.062000", "104212.062000", "104214.062000", "104216.062000", "104218.062000", "104220.062000", "104222.062000", "104224.062000", "104226.062000", "104228.062000", "104230.062000", "104232.062000", "104234.062000", "104236.062000", "104238.062000", "104240.062000", "104242.062000", "104244.062000", "104246.062000", "104248.062000", "104250.062000", "104252.062000", "104254.062000", "104256.062000", "104258.062000", "104300.062000", "104302.062000", "104304.062000", "104306.062000", "104308.062000", "104310.062000", "104312.062000", "104314.062000", "104316.062000", "104318.062000", "104320.062000", "104322.062000", "104324.062000", "104326.062000", "104328.062000", "104330.062000", "104332.062000", "104334.062000", "104336.062000", "104338.062000", "104340.062000", "104342.062000", "104344.062000", "104346.062000", "104348.062000", "104350.062000", "104352.062000", "104354.062000", "104356.062000", "104358.062000", "104400.062000", "104402.062000", "104404.062000", "104406.062000", "104408.062000", "104410.062000", "104412.062000", "104414.062000", "104416.062000", "104418.062000", "104420.062000", "104422.062000", "104424.062000", "104426.062000", "104428.062000", "104430.062000", "104432.062000", "104434.062000", "104436.062000", "104438.062000", "104440.062000", "104442.062000", "104444.062000", "104446.062000", "104448.062000", "104450.062000", "104452.062000", "104454.062000", "104456.062000", "104458.062000", "104500.062000", "104502.062000", "104504.062000", "104506.062000", "104508.062000", "104510.062000", "104512.062000", "104514.062000", "104516.062000", "104518.062000", "104520.062000", "104522.062000", "104524.062000", "104526.062000", "104528.062000", "104530.062000", "104532.062000", "104534.062000", "104536.062000", "104538.062000", "104540.062000", "104542.062000", "104543.703000"],
      "InstanceCreationTime": ["103846.078000", "103848.062000", "103850.062000", "103852.062000", "103854.062000", "103856.062000", "103858.062000", "103900.062000", "103902.062000", "103904.062000", "103906.062000", "103908.062000", "103910.062000", "103912.062000", "103914.062000", "103916.062000", "103918.062000", "103920.062000", "103922.062000", "103924.062000", "103926.062000", "103928.062000", "103930.062000", "103932.062000", "103934.062000", "103936.062000", "103938.062000", "103940.062000", "103942.062000", "103944.062000", "103946.062000", "103948.062000", "103950.062000", "103952.062000", "103954.062000", "103956.062000", "103958.062000", "104000.062000", "104002.062000", "104004.062000", "104006.062000", "104008.062000", "104010.062000", "104012.062000", "104014.062000", "104016.062000", "104018.062000", "104020.062000", "104022.062000", "104024.062000", "104026.062000", "104028.062000", "104030.062000", "104032.062000", "104034.062000", "104036.062000", "104038.062000", "104040.062000", "104042.062000", "104044.062000", "104046.062000", "104048.062000", "104050.062000", "104052.062000", "104054.062000", "104056.062000", "104058.062000", "104100.062000", "104102.062000", "104104.062000", "104106.062000", "104108.062000", "104110.062000", "104112.062000", "104114.062000", "104116.062000", "104118.062000", "104120.062000", "104122.062000", "104124.062000", "104126.062000", "104128.062000", "104130.062000", "104132.062000", "104134.062000", "104136.062000", "104138.062000", "104140.062000", "104142.062000", "104144.062000", "104146.062000", "104148.062000", "104150.062000", "104152.062000", "104154.062000", "104156.062000", "104158.062000", "104200.078000", "104202.062000", "104204.062000", "104206.062000", "104208.062000", "104210.062000", "104212.062000", "104214.062000", "104216.062000", "104218.062000", "104220.062000", "104222.062000", "104224.062000", "104226.062000", "104228.062000", "104230.062000", "104232.062000", "104234.062000", "104236.062000", "104238.062000", "104240.062000", "104242.062000", "104244.062000", "104246.062000", "104248.062000", "104250.062000", "104252.062000", "104254.062000", "104256.062000", "104258.062000", "104300.062000", "104302.062000", "104304.062000", "104306.062000", "104308.062000", "104310.062000", "104312.062000", "104314.062000", "104316.062000", "104318.062000", "104320.062000", "104322.062000", "104324.062000", "104326.062000", "104328.062000", "104330.062000", "104332.062000", "104334.062000", "104336.062000", "104338.062000", "104340.062000", "104342.062000", "104344.062000", "104346.062000", "104348.062000", "104350.062000", "104352.062000", "104354.062000", "104356.062000", "104358.062000", "104400.062000", "104402.062000", "104404.062000", "104406.062000", "104408.062000", "104410.062000", "104412.062000", "104414.062000", "104416.062000", "104418.062000", "104420.062000", "104422.062000", "104424.062000", "104426.062000", "104428.062000", "104430.062000", "104432.062000", "104434.062000", "104436.062000", "104438.062000", "104440.062000", "104442.062000", "104444.062000", "104446.062000", "104448.062000", "104450.062000", "104452.062000", "104454.062000", "104456.062000", "104458.062000", "104500.062000", "104502.062000", "104504.062000", "104506.062000", "104508.062000", "104510.062000", "104512.062000", "104514.062000", "104516.062000", "104518.062000", "104520.062000", "104522.062000", "104524.062000", "104526.062000", "104528.062000", "104530.062000", "104532.062000", "104534.062000", "104536.062000", "104538.062000", "104540.062000", "104542.062000", "104543.703000"],
      "InstanceNumber": [1, 2, 3, 4, 5, 6, 7, 8, 9, 10, 11, 12, 13, 14, 15, 16, 17, 18, 19, 20, 21, 22, 23, 24, 25, 26, 27, 28, 29, 30, 31, 32, 33, 34, 35, 36, 37, 38, 39, 40, 41, 42, 43, 44, 45, 46, 47, 48, 49, 50, 51, 52, 53, 54, 55, 56, 57, 58, 59, 60, 61, 62, 63, 64, 65, 66, 67, 68, 69, 70, 71, 72, 73, 74, 75, 76, 77, 78, 79, 80, 81, 82, 83, 84, 85, 86, 87, 88, 89, 90, 91, 92, 93, 94, 95, 96, 97, 98, 99, 100, 101, 102, 103, 104, 105, 106, 107, 108, 109, 110, 111, 112, 113, 114, 115, 116, 117, 118, 119, 120, 121, 122, 123, 124, 125, 126, 127, 128, 129, 130, 131, 132, 133, 134, 135, 136, 137, 138, 139, 140, 141, 142, 143, 144, 145, 146, 147, 148, 149, 150, 151, 152, 153, 154, 155, 156, 157, 158, 159, 160, 161, 162, 163, 164, 165, 166, 167, 168, 169, 170, 171, 172, 173, 174, 175, 176, 177, 178, 179, 180, 181, 182, 183, 184, 185, 186, 187, 188, 189, 190, 191, 192, 193, 194, 195, 196, 197, 198, 199, 200, 201, 202, 203, 204, 205, 206, 207, 208, 209, 210],
      "LargestImagePixelValue": [1940, 1863, 1856, 1833, 1843, 1845, 1833, 1838, 1846, 1857, 1838, 1912, 1825, 1825, 1843, 1831, 1831, 1840, 1898, 1812, 1814, 1842, 1836, 1910, 1843, 1837, 1830, 1811, 1833, 1853, 1866, 1866, 1843, 1857, 1844, 1852, 1850, 1854, 1862, 1838, 1847, 1841, 1840, 1848, 1841, 1841, 1866, 1844, 1854, 1853, 1853, 1869, 1839, 1865, 1858, 1840, 1833, 1855, 1865, 1843, 1841, 1847, 1841, 1865, 1857, 1828, 1836, 1844, 1845, 1836, 1845, 1844, 1832, 1853, 1918, 1835, 1843, 1851, 1841, 1830, 1840, 1832, 1796, 1838, 1827, 1816, 1844, 1848, 1854, 1844, 1865, 1855, 1853, 1863, 1860, 1859, 1848, 1865, 1858, 1844, 1923, 1846, 1840, 1848, 1840, 1832, 1825, 1829, 1822, 1848, 1853, 1859, 1852, 1859, 1855, 1847, 1930, 1863, 1845, 1843, 1842, 1853, 1851, 1829, 1842, 1855, 1864, 1839, 1850, 1860, 1872, 1832, 1857, 1861, 1926, 1821, 1840, 1850, 1835, 1840, 1849, 1825, 1836, 1841, 1846, 1826, 1835, 1851, 1843, 1853, 1877, 1877, 1866, 1835, 1847, 1834, 1848, 1855, 1840, 1864, 1855, 1841, 1843, 1852, 1857, 1823, 1847, 1855, 1843, 1848, 1853, 1831, 1854, 1831, 1840, 1829, 1852, 1848, 1857, 1843, 1846, 1872, 1869, 1864, 1848, 1828, 1819, 1839, 1841, 1832, 1839, 1834, 1854, 1860, 1856, 1866, 1853, 1852, 1859, 1835, 1865, 1851, 1844, 1854, 1848, 1839, 1846, 1837, 1834, 1839],
      "WindowCenter": [749.0, 743.0, 742.0, 742.0, 742.0, 741.0, 740.0, 740.0, 740.0, 742.0, 743.0, 743.0, 741.0, 741.0, 742.0, 742.0, 742.0, 741.0, 740.0, 741.0, 742.0, 744.0, 743.0, 743.0, 741.0, 742.0, 743.0, 742.0, 743.0, 743.0, 742.0, 741.0, 742.0, 743.0, 742.0, 743.0, 743.0, 743.0, 742.0, 743.0, 743.0, 742.0, 741.0, 741.0, 743.0, 743.0, 742.0, 740.0, 742.0, 745.0, 744.0, 742.0, 742.0, 743.0, 744.0, 743.0, 743.0, 743.0, 745.0, 744.0, 743.0, 742.0, 743.0, 744.0, 743.0, 744.0, 746.0, 745.0, 744.0, 744.0, 744.0, 742.0, 742.0, 741.0, 742.0, 741.0, 743.0, 744.0, 744.0, 743.0, 743.0, 743.0, 743.0, 743.0, 743.0, 744.0, 744.0, 743.0, 743.0, 742.0, 744.0, 747.0, 745.0, 743.0, 742.0, 743.0, 743.0, 744.0, 743.0, 743.0, 743.0, 743.0, 745.0, 745.0, 744.0, 743.0, 743.0, 743.0, 743.0, 743.0, 744.0, 745.0, 744.0, 743.0, 744.0, 744.0, 745.0, 746.0, 746.0, 744.0, 744.0, 744.0, 745.0, 745.0, 744.0, 744.0, 744.0, 743.0, 743.0, 744.0, 745.0, 743.0, 743.0, 744.0, 744.0, 744.0, 744.0, 744.0, 744.0, 745.0, 747.0, 746.0, 745.0, 746.0, 746.0, 745.0, 744.0, 744.0, 744.0, 745.0, 744.0, 743.0, 744.0, 743.0, 743.0, 743.0, 744.0, 744.0, 743.0, 743.0, 743.0, 743.0, 744.0, 744.0, 744.0, 744.0, 744.0, 743.0, 743.0, 744.0, 745.0, 744.0, 744.0, 744.0, 744.0, 744.0, 744.0, 743.0, 743.0, 743.0, 743.0, 746.0, 747.0, 745.0, 744.0, 742.0, 741.0, 741.0, 742.0, 745.0, 745.0, 744.0, 744.0, 745.0, 746.0, 743.0, 742.0, 744.0, 744.0, 744.0, 744.0, 743.0, 742.0, 743.0, 745.0, 746.0, 745.0, 745.0, 747.0, 747.0],
      "WindowWidth": [1587.0, 1574.0, 1570.0, 1570.0, 1570.0, 1568.0, 1566.0, 1566.0, 1566.0, 1570.0, 1574.0, 1572.0, 1567.0, 1568.0, 1569.0, 1571.0, 1570.0, 1568.0, 1567.0, 1567.0, 1571.0, 1574.0, 1571.0, 1571.0, 1569.0, 1570.0, 1572.0, 1571.0, 1573.0, 1573.0, 1571.0, 1569.0, 1570.0, 1572.0, 1571.0, 1572.0, 1573.0, 1572.0, 1572.0, 1572.0, 1573.0, 1571.0, 1568.0, 1569.0, 1573.0, 1574.0, 1571.0, 1567.0, 1570.0, 1579.0, 1576.0, 1571.0, 1570.0, 1573.0, 1575.0, 1572.0, 1572.0, 1573.0, 1577.0, 1576.0, 1573.0, 1570.0, 1572.0, 1575.0, 1573.0, 1574.0, 1581.0, 1578.0, 1575.0, 1574.0, 1574.0, 1570.0, 1569.0, 1568.0, 1570.0, 1569.0, 1572.0, 1575.0, 1574.0, 1574.0, 1573.0, 1574.0, 1572.0, 1572.0, 1573.0, 1576.0, 1575.0, 1573.0, 1572.0, 1571.0, 1576.0, 1582.0, 1578.0, 1573.0, 1571.0, 1572.0, 1574.0, 1575.0, 1574.0, 1572.0, 1573.0, 1574.0, 1578.0, 1577.0, 1575.0, 1573.0, 1572.0, 1574.0, 1573.0, 1573.0, 1575.0, 1578.0, 1576.0, 1574.0, 1575.0, 1576.0, 1578.0, 1580.0, 1580.0, 1576.0, 1576.0, 1577.0, 1578.0, 1577.0, 1575.0, 1574.0, 1574.0, 1573.0, 1573.0, 1574.0, 1576.0, 1574.0, 1572.0, 1574.0, 1576.0, 1576.0, 1574.0, 1574.0, 1575.0, 1578.0, 1583.0, 1580.0, 1578.0, 1579.0, 1579.0, 1577.0, 1574.0, 1575.0, 1575.0, 1578.0, 1574.0, 1574.0, 1575.0, 1574.0, 1573.0, 1574.0, 1575.0, 1574.0, 1574.0, 1573.0, 1572.0, 1573.0, 1575.0, 1575.0, 1574.0, 1576.0, 1576.0, 1574.0, 1574.0, 1576.0, 1577.0, 1575.0, 1575.0, 1574.0, 1575.0, 1574.0, 1574.0, 1573.0, 1573.0, 1574.0, 1574.0, 1580.0, 1583.0, 1579.0, 1574.0, 1570.0, 1568.0, 1568.0, 1571.0, 1577.0, 1578.0, 1574.0, 1574.0, 1579.0, 1580.0, 1573.0, 1571.0, 1574.0, 1576.0, 1575.0, 1575.0, 1572.0, 1570.0, 1572.0, 1577.0, 1579.0, 1578.0, 1578.0, 1583.0, 1583.0]
    },
    "slices": {}
  }
}