{
  "AcquisitionMatrixPE": 64,
  "AcquisitionNumber": 1,
  "AcquisitionTime": "10:46:22.290000",
  "BandwidthPerPixelPhaseEncode": 30.637,
  "BaseResolution": 64,
  "BidsGuess": [
    "func",
    "_acq-epfid2_dir-AP_run-9_bold"
],
  "CoilCombinationMethod": "Sum of Squares",
  "CoilString": "C:HEA;HEP",
  "ConversionSoftware": "dcm2niix",
  "ConversionSoftwareVersion": "v1.0.20240202",
  "DerivedVendorReportedEchoSpacing": 0.000510004,
  "DeviceSerialNumber": "35119",
  "DwellTime": 3.5e-06,
  "EchoTime": 0.03,
  "EffectiveEchoSpacing": 0.000510004,
  "FlipAngle": 78,
  "HeudiconvVersion": "1.1.6",
  "ImageComments": "V",
  "ImageOrientationPatientDICOM": [1, 0, 0, 0, 0.904827, -0.425779],
  "ImageOrientationText": "Tra>Cor(-25.2)",
  "ImageType": [
    "ORIGINAL",
    "PRIMARY",
    "M",
    "ND",
    "MOSAIC"
],
  "ImagingFrequency": 123.251802,
  "InPlanePhaseEncodingDirectionDICOM": "COL",
  "InstitutionAddress": "Chaucer Road  15,Cambridge,UK,GB,CB2 2EF",
  "InstitutionName": "MRC-CBU",
  "MRAcquisitionType": "2D",
  "MagneticFieldStrength": 3,
  "Manufacturer": "Siemens",
  "ManufacturersModelName": "TrioTim",
  "MatrixCoilMode": "SENSE",
  "Modality": "MR",
  "NonlinearGradientCorrection": false,
  "PartialFourier": 1,
  "PatientPosition": "HFS",
  "PercentPhaseFOV": 100,
  "PercentSampling": 100,
  "PhaseEncodingDirection": "j-",
  "PhaseEncodingSteps": 64,
  "PhaseResolution": 1,
  "PixelBandwidth": 2230,
  "ProcedureStepDescription": "CBU^Neuroimaging",
  "ProtocolName": "CBU_DWEPI_BOLD210",
  "PulseSequenceDetails": "%SiemensSeq%\\ep2d_bold",
  "ReceiveCoilName": "HeadMatrix",
  "ReconMatrixPE": 64,
  "RepetitionTime": 2,
  "SAR": 0.134505,
  "ScanOptions": "FS",
  "ScanningSequence": "EP",
  "SequenceName": "*epfid2d1_64",
  "SequenceVariant": "SK",
  "SeriesDescription": "CBU_DWEPI_BOLD210",
  "SeriesNumber": 9,
  "ShimSetting": [-7826, -8756, -2054, 827, 86, 418, -65, 142],
  "SliceThickness": 3,
  "SliceTiming": [0, 1.0325, 0.06, 1.095, 0.12, 1.155, 0.1825, 1.215, 0.2425, 1.2775, 0.3025, 1.3375, 0.365, 1.3975, 0.425, 1.46, 0.485, 1.52, 0.5475, 1.58, 0.6075, 1.6425, 0.6675, 1.7025, 0.73, 1.7625, 0.79, 1.825, 0.85, 1.885, 0.9125, 1.945, 0.9725],
  "SoftwareVersions": "syngo MR B15",
  "SpacingBetweenSlices": 3.75,
  "StationName": "MRC35119",
  "TaskName": "faceprocessing",
  "TotalReadoutTime": 0.0321303,
  "TxRefAmp": 300.239,
  "dcmmeta_affine": [
    [-3.0, 0.0, 0.0, 98.03389739990234],
    [0.0, 2.7144811153411865, -1.596671223640442, -50.36967849731445],
    [0.0, 1.2773369550704956, 3.393101215362549, -80.83121490478516],
    [0.0, 0.0, 0.0, 1.0]
],
  "dcmmeta_reorient_transform": [
    [0.0, -1.0, 0.0, 63.0],
    [1.0, 0.0, 0.0, 0.0],
    [0.0, 0.0, 1.0, 0.0],
    [0.0, 0.0, 0.0, 1.0]
],
  "dcmmeta_shape": [64, 64, 33, 210],
  "dcmmeta_slice_dim": 2,
  "dcmmeta_version": 0.6,
  "global": {
    "const": {
      "AcquisitionMatrix": [64, 0, 0, 64],
      "AngioFlag": "N",
      "BitsAllocated": 16,
      "BitsStored": 12,
      "Columns": 384,
      "EchoNumbers": 1,
      "EchoTime": 30.0,
      "EchoTrainLength": 1,
      "FlipAngle": 78.0,
      "HighBit": 11,
      "ImageOrientationPatient": [1.0, 0.0, 0.0, 0.0, 0.904827, -0.425779],
      "ImagePositionPatient": [-578.033898, -554.959586, 204.014934],
      "ImageType": [
        "ORIGINAL",
        "PRIMARY",
        "M",
        "ND",
        "MOSAIC"
],
      "ImagedNucleus": "1H",
      "ImagingFrequency": 123.251802,
      "InPlanePhaseEncodingDirection": "COL",
      "MRAcquisitionType": "2D",
      "MagneticFieldStrength": 3.0,
      "Manufacturer": "SIEMENS",
      "ManufacturerModelName": "TrioTim",
      "Modality": "MR",
      "NumberOfAverages": 1.0,
      "NumberOfPhaseEncodingSteps": 64,
      "PercentPhaseFieldOfView": 100.0,
      "PercentSampling": 100.0,
      "PerformedProcedureStepStartTime": "095125.984000",
      "PhotometricInterpretation": "MONOCHROME2",
      "PixelAspectRatio": [1, 1],
      "PixelBandwidth": 2230.0,
      "PixelRepresentation": 0,
      "PixelSpacing": [3.0, 3.0],
      "ProtocolName": "CBU_DWEPI_BOLD210",
      "RepetitionTime": 2000.0,
      "Rows": 384,
      "SAR": 0.134505,
      "SamplesPerPixel": 1,
      "ScanOptions": "FS",
      "ScanningSequence": "EP",
      "SequenceName": "*epfid2d1_64",
      "SequenceVariant": "SK",
      "SeriesDescription": "CBU_DWEPI_BOLD210",
      "SeriesNumber": 9,
      "SeriesTime": "104625.125000",
      "SliceLocation": -51.692062,
      "SliceThickness": 3.0,
      "SmallestImagePixelValue": 0,
      "SoftwareVersions": "syngo MR B15",
      "SpacingBetweenSlices": 3.75,
      "SpecificCharacterSet": "ISO_IR 100",
      "StudyID": "1",
      "StudyTime": "095125.921000",
      "TransmitCoilName": "Body",
      "VariableFlipAngleFlag": "N",
      "WindowCenterWidthExplanation": "Algo1",
      "dBdt": 0.0},
    "slices": {}
  },
  "time": {
    "samples": {
      "AcquisitionNumber": [1, 2, 3, 4, 5, 6, 7, 8, 9, 10, 11, 12, 13, 14, 15, 16, 17, 18, 19, 20, 21, 22, 23, 24, 25, 26, 27, 28, 29, 30, 31, 32, 33, 34, 35, 36, 37, 38, 39, 40, 41, 42, 43, 44, 45, 46, 47, 48, 49, 50, 51, 52, 53, 54, 55, 56, 57, 58, 59, 60, 61, 62, 63, 64, 65, 66, 67, 68, 69, 70, 71, 72, 73, 74, 75, 76, 77, 78, 79, 80, 81, 82, 83, 84, 85, 86, 87, 88, 89, 90, 91, 92, 93, 94, 95, 96, 97, 98, 99, 100, 101, 102, 103, 104, 105, 106, 107, 108, 109, 110, 111, 112, 113, 114, 115, 116, 117, 118, 119, 120, 121, 122, 123, 124, 125, 126, 127, 128, 129, 130, 131, 132, 133, 134, 135, 136, 137, 138, 139, 140, 141, 142, 143, 144, 145, 146, 147, 148, 149, 150, 151, 152, 153, 154, 155, 156, 157, 158, 159, 160, 161, 162, 163, 164, 165, 166, 167, 168, 169, 170, 171, 172, 173, 174, 175, 176, 177, 178, 179, 180, 181, 182, 183, 184, 185, 186, 187, 188, 189, 190, 191, 192, 193, 194, 195, 196, 197, 198, 199, 200, 201, 202, 203, 204, 205, 206, 207, 208, 209, 210],
      "AcquisitionTime": ["104622.290000", "104624.297500", "104626.305000", "104628.312500", "104630.322500", "104632.330000", "104634.337500", "104636.345000", "104638.352500", "104640.362500", "104642.370000", "104644.377500", "104646.385000", "104648.392500", "104650.402500", "104652.410000", "104654.417500", "104656.425000", "104658.435000", "104700.442500", "104702.450000", "104704.457500", "104706.465000", "104708.475000", "104710.482500", "104712.490000", "104714.497500", "104716.505000", "104718.515000", "104720.522500", "104722.530000", "104724.537500", "104726.545000", "104728.555000", "104730.562500", "104732.570000", "104734.577500", "104736.587500", "104738.595000", "104740.602500", "104742.610000", "104744.617500", "104746.627500", "104748.635000", "104750.642500", "104752.650000", "104754.657500", "104756.667500", "104758.675000", "104800.682500", "104802.690000", "104804.700000", "104806.707500", "104808.715000", "104810.722500", "104812.730000", "104814.740000", "104816.747500", "104818.755000", "104820.762500", "104822.770000", "104824.780000", "104826.787500", "104828.795000", "104830.802500", "104832.812500", "104834.820000", "104836.827500", "104838.835000", "104840.842500", "104842.852500", "104844.860000", "104846.867500", "104848.875000", "104850.882500", "104852.892500", "104854.900000", "104856.907500", "104858.915000", "104900.922500", "104902.932500", "104904.940000", "104906.947500", "104908.955000", "104910.965000", "104912.972500", "104914.980000", "104916.987500", "104918.995000", "104921.005000", "104923.012500", "104925.020000", "104927.027500", "104929.035000", "104931.045000", "104933.052500", "104935.060000", "104937.067500", "104939.077500", "104941.085000", "104943.092500", "104945.100000", "104947.107500", "104949.117500", "104951.125000", "104953.132500", "104955.140000", "104957.147500", "104959.157500", "105001.165000", "105003.172500", "105005.180000", "105007.190000", "105009.197500", "105011.205000", "105013.212500", "105015.220000", "105017.230000", "105019.237500", "105021.245000", "105023.252500", "105025.260000", "105027.270000", "105029.277500", "105031.285000", "105033.292500", "105035.302500", "105037.310000", "105039.317500", "105041.325000", "105043.332500", "105045.342500", "105047.350000", "105049.357500", "105051.365000", "105053.372500", "105055.382500", "105057.390000", "105059.397500", "105101.405000", "105103.412500", "105105.422500", "105107.430000", "105109.437500", "105111.445000", "105113.455000", "105115.462500", "105117.470000", "105119.477500", "105121.485000", "105123.495000", "105125.502500", "105127.510000", "105129.517500", "105131.525000", "105133.535000", "105135.542500", "105137.550000", "105139.557500", "105141.567500", "105143.575000", "105145.582500", "105147.590000", "105149.597500", "105151.607500", "105153.615000", "105155.622500", "105157.630000", "105159.637500", "105201.647500", "105203.655000", "105205.662500", "105207.670000", "105209.680000", "105211.687500", "105213.695000", "105215.702500", "105217.710000", "105219.720000", "105221.727500", "105223.735000", "105225.742500", "105227.750000", "105229.760000", "105231.767500", "105233.775000", "105235.782500", "105237.790000", "105239.800000", "105241.807500", "105243.815000", "105245.822500", "105247.832500", "105249.840000", "105251.847500", "105253.855000", "105255.862500", "105257.872500", "105259.880000", "105301.887500", "105303.895000", "105305.902500", "105307.912500", "105309.920000", "105311.927500", "105313.935000", "105315.945000", "105317.952500", "105319.960000", "105321.967500"],
      "ContentTime": ["104625.140000", "104627.125000", "104629.125000", "104631.125000", "104633.125000", "104635.125000", "104637.125000", "104639.125000", "104641.125000", "104643.125000", "104645.125000", "104647.125000", "104649.125000", "104651.125000", "104653.125000", "104655.125000", "104657.125000", "104659.625000", "104701.125000", "104703.125000", "104705.125000", "104707.125000", "104709.625000", "104711.125000", "104713.125000", "104715.125000", "104717.125000", "104719.125000", "104721.125000", "104723.125000", "104725.125000", "104727.125000", "104729.125000", "104731.125000", "104733.125000", "104735.125000", "104737.125000", "104739.125000", "104741.125000", "104743.125000", "104745.125000", "104747.125000", "104749.125000", "104751.125000", "104753.125000", "104755.125000", "104757.125000", "104759.125000", "104801.125000", "104803.125000", "104805.125000", "104807.125000", "104809.125000", "104811.125000", "104813.125000", "104815.125000", "104817.125000", "104819.125000", "104821.125000", "104823.125000", "104825.125000", "104827.125000", "104829.125000", "104831.125000", "104833.125000", "104835.125000", "104837.125000", "104839.125000", "104841.125000", "104843.125000", "104845.125000", "104847.125000", "104849.125000", "104851.125000", "104853.125000", "104855.125000", "104857.125000", "104859.125000", "104901.125000", "104903.125000", "104905.125000", "104907.125000", "104909.125000", "104911.125000", "104913.125000", "104915.125000", "104917.125000", "104919.125000", "104921.125000", "104923.125000", "104925.125000", "104927.125000", "104929.125000", "104931.125000", "104933.125000", "104935.125000", "104937.125000", "104939.125000", "104941.125000", "104943.125000", "104945.125000", "104947.125000", "104949.125000", "104951.125000", "104953.125000", "104955.125000", "104957.125000", "104959.125000", "105001.125000", "105003.125000", "105005.125000", "105007.125000", "105009.125000", "105011.125000", "105013.625000", "105015.125000", "105017.125000", "105019.125000", "105021.125000", "105023.125000", "105025.125000", "105027.125000", "105029.125000", "105031.125000", "105033.125000", "105035.125000", "105037.125000", "105039.125000", "105041.625000", "105043.125000", "105045.125000", "105047.125000", "105049.125000", "105051.125000", "105053.125000", "105055.125000", "105057.125000", "105059.125000", "105101.125000", "105103.125000", "105105.125000", "105107.125000", "105109.125000", "105111.125000", "105113.125000", "105115.125000", "105117.125000", "105119.125000", "105121.625000", "105123.625000", "105125.125000", "105127.125000", "105129.125000", "105131.125000", "105133.125000", "105135.125000", "105137.125000", "105139.625000", "105141.125000", "105143.125000", "105145.125000", "105147.125000", "105149.125000", "105151.125000", "105153.125000", "105155.125000", "105157.125000", "105159.125000", "105201.125000", "105203.125000", "105205.125000", "105207.125000", "105209.125000", "105211.125000", "105213.125000", "105215.625000", "105217.125000", "105219.125000", "105221.125000", "105223.125000", "105225.125000", "105227.625000", "105229.625000", "105231.125000", "105233.125000", "105235.125000", "105237.125000", "105239.625000", "105241.125000", "105243.125000", "105245.125000", "105247.125000", "105249.125000", "105251.125000", "105253.125000", "105255.125000", "105257.125000", "105259.125000", "105301.125000", "105303.125000", "105305.625000", "105307.125000", "105309.125000", "105311.125000", "105313.125000", "105315.625000", "105317.125000", "105319.125000", "105321.125000", "105323.062000"],
      "InstanceCreationTime": ["104625.140000", "104627.125000", "104629.125000", "104631.125000", "104633.125000", "104635.125000", "104637.125000", "104639.125000", "104641.125000", "104643.125000", "104645.125000", "104647.125000", "104649.125000", "104651.125000", "104653.125000", "104655.125000", "104657.125000", "104659.625000", "104701.125000", "104703.125000", "104705.125000", "104707.125000", "104709.625000", "104711.125000", "104713.125000", "104715.125000", "104717.125000", "104719.125000", "104721.125000", "104723.125000", "104725.125000", "104727.125000", "104729.125000", "104731.125000", "104733.125000", "104735.125000", "104737.125000", "104739.125000", "104741.125000", "104743.125000", "104745.125000", "104747.125000", "104749.125000", "104751.125000", "104753.125000", "104755.125000", "104757.125000", "104759.125000", "104801.125000", "104803.125000", "104805.125000", "104807.125000", "104809.125000", "104811.125000", "104813.125000", "104815.125000", "104817.125000", "104819.125000", "104821.125000", "104823.125000", "104825.125000", "104827.125000", "104829.125000", "104831.125000", "104833.125000", "104835.125000", "104837.125000", "104839.125000", "104841.125000", "104843.125000", "104845.125000", "104847.125000", "104849.125000", "104851.125000", "104853.125000", "104855.125000", "104857.125000", "104859.125000", "104901.125000", "104903.125000", "104905.125000", "104907.125000", "104909.125000", "104911.125000", "104913.125000", "104915.125000", "104917.125000", "104919.125000", "104921.125000", "104923.125000", "104925.125000", "104927.125000", "104929.125000", "104931.125000", "104933.125000", "104935.125000", "104937.125000", "104939.125000", "104941.125000", "104943.125000", "104945.125000", "104947.125000", "104949.125000", "104951.125000", "104953.125000", "104955.125000", "104957.125000", "104959.125000", "105001.125000", "105003.125000", "105005.125000", "105007.125000", "105009.125000", "105011.125000", "105013.625000", "105015.125000", "105017.125000", "105019.125000", "105021.125000", "105023.125000", "105025.125000", "105027.125000", "105029.125000", "105031.125000", "105033.125000", "105035.125000", "105037.125000", "105039.125000", "105041.625000", "105043.125000", "105045.125000", "105047.125000", "105049.125000", "105051.125000", "105053.125000", "105055.125000", "105057.125000", "105059.125000", "105101.125000", "105103.125000", "105105.125000", "105107.125000", "105109.125000", "105111.125000", "105113.125000", "105115.125000", "105117.125000", "105119.125000", "105121.625000", "105123.625000", "105125.125000", "105127.125000", "105129.125000", "105131.125000", "105133.125000", "105135.125000", "105137.125000", "105139.625000", "105141.125000", "105143.125000", "105145.125000", "105147.125000", "105149.125000", "105151.125000", "105153.125000", "105155.125000", "105157.125000", "105159.125000", "105201.125000", "105203.125000", "105205.125000", "105207.125000", "105209.125000", "105211.125000", "105213.125000", "105215.625000", "105217.125000", "105219.125000", "105221.125000", "105223.125000", "105225.125000", "105227.625000", "105229.625000", "105231.125000", "105233.125000", "105235.125000", "105237.125000", "105239.625000", "105241.125000", "105243.125000", "105245.125000", "105247.125000", "105249.125000", "105251.125000", "105253.125000", "105255.125000", "105257.125000", "105259.125000", "105301.125000", "105303.125000", "105305.625000", "105307.125000", "105309.125000", "105311.125000", "105313.125000", "105315.625000", "105317.125000", "105319.125000", "105321.125000", "105323.062000"],
      "InstanceNumber": [1, 2, 3, 4, 5, 6, 7, 8, 9, 10, 11, 12, 13, 14, 15, 16, 17, 18, 19, 20, 21, 22, 23, 24, 25, 26, 27, 28, 29, 30, 31, 32, 33, 34, 35, 36, 37, 38, 39, 40, 41, 42, 43, 44, 45, 46, 47, 48, 49, 50, 51, 52, 53, 54, 55, 56, 57, 58, 59, 60, 61, 62, 63, 64, 65, 66, 67, 68, 69, 70, 71, 72, 73, 74, 75, 76, 77, 78, 79, 80, 81, 82, 83, 84, 85, 86, 87, 88, 89, 90, 91, 92, 93, 94, 95, 96, 97, 98, 99, 100, 101, 102, 103, 104, 105, 106, 107, 108, 109, 110, 111, 112, 113, 114, 115, 116, 117, 118, 119, 120, 121, 122, 123, 124, 125, 126, 127, 128, 129, 130, 131, 132, 133, 134, 135, 136, 137, 138, 139, 140, 141, 142, 143, 144, 145, 146, 147, 148, 149, 150, 151, 152, 153, 154, 155, 156, 157, 158, 159, 160, 161, 162, 163, 164, 165, 166, 167, 168, 169, 170, 171, 172, 173, 174, 175, 176, 177, 178, 179, 180, 181, 182, 183, 184, 185, 186, 187, 188, 189, 190, 191, 192, 193, 194, 195, 196, 197, 198, 199, 200, 201, 202, 203, 204, 205, 206, 207, 208, 209, 210],
      "LargestImagePixelValue": [1909, 1808, 1790, 1769, 1776, 1779, 1777, 1800, 1773, 1770, 1771, 1784, 1783, 1816, 1776, 1769, 1774, 1779, 1766, 1779, 1782, 1787, 1789, 1788, 1767, 1765, 1796, 1766, 1779, 1756, 1785, 1794, 1777, 1775, 1810, 1767, 1772, 1767, 1779, 1850, 1773, 1798, 1785, 1800, 1786, 1781, 1766, 1768, 1776, 1779, 1778, 1772, 1883, 1770, 1784, 1823, 1789, 1792, 1762, 1838, 1786, 1758, 1782, 1849, 1780, 1770, 1911, 1771, 1810, 1791, 1776, 1783, 1858, 1775, 1827, 1765, 1765, 1777, 1795, 1784, 1784, 1789, 1766, 1780, 1778, 1953, 1790, 1779, 1777, 1792, 1801, 1782, 1786, 1794, 1764, 1768, 1785, 1791, 1784, 1772, 1758, 1782, 1780, 1764, 1787, 1928, 1792, 1784, 1774, 1780, 1778, 1797, 1775, 1899, 1793, 1799, 1796, 1773, 1783, 1784, 1808, 1760, 1774, 1783, 1760, 1775, 1854, 1802, 1779, 1787, 1763, 1753, 1764, 1774, 1796, 1786, 1766, 1759, 1763, 1774, 1779, 1770, 1763, 1786, 1833, 1769, 1779, 1779, 1764, 1796, 1773, 1784, 1784, 1777, 1790, 1765, 1830, 1787, 1781, 1793, 1783, 1781, 1790, 1807, 1785, 1959, 1763, 1763, 1747, 1786, 1789, 1779, 1797, 1777, 1774, 1768, 1788, 1767, 1764, 1783, 1774, 1767, 1774, 1782, 1781, 1764, 1898, 1766, 1784, 1795, 1801, 1836, 1779, 1782, 1766, 1932, 1785, 1781, 1799, 1772, 1771, 1782, 1775, 1770, 1766, 1778, 1778, 1776, 1766, 1771],
      "WindowCenter": [749.0, 745.0, 745.0, 742.0, 743.0, 744.0, 743.0, 743.0, 744.0, 745.0, 744.0, 743.0, 742.0, 743.0, 743.0, 743.0, 743.0, 744.0, 743.0, 743.0, 743.0, 743.0, 743.0, 744.0, 744.0, 744.0, 743.0, 742.0, 742.0, 743.0, 744.0, 745.0, 745.0, 744.0, 743.0, 743.0, 744.0, 744.0, 745.0, 745.0, 744.0, 743.0, 744.0, 745.0, 745.0, 745.0, 745.0, 744.0, 744.0, 745.0, 745.0, 745.0, 744.0, 744.0, 744.0, 744.0, 744.0, 745.0, 745.0, 745.0, 744.0, 744.0, 745.0, 745.0, 744.0, 745.0, 744.0, 743.0, 745.0, 747.0, 745.0, 744.0, 744.0, 743.0, 743.0, 743.0, 744.0, 744.0, 743.0, 743.0, 744.0, 744.0, 743.0, 744.0, 744.0, 744.0, 743.0, 743.0, 743.0, 745.0, 746.0, 745.0, 744.0, 744.0, 744.0, 744.0, 743.0, 743.0, 744.0, 745.0, 744.0, 744.0, 747.0, 747.0, 745.0, 744.0, 744.0, 746.0, 746.0, 746.0, 745.0, 745.0, 744.0, 744.0, 744.0, 745.0, 744.0, 744.0, 744.0, 743.0, 742.0, 741.0, 741.0, 743.0, 744.0, 746.0, 745.0, 744.0, 745.0, 745.0, 743.0, 742.0, 743.0, 745.0, 744.0, 744.0, 744.0, 744.0, 743.0, 742.0, 745.0, 746.0, 745.0, 744.0, 744.0, 743.0, 744.0, 745.0, 745.0, 745.0, 745.0, 744.0, 744.0, 745.0, 746.0, 744.0, 744.0, 744.0, 744.0, 744.0, 745.0, 745.0, 745.0, 746.0, 745.0, 745.0, 744.0, 744.0, 743.0, 743.0, 744.0, 746.0, 746.0, 745.0, 745.0, 745.0, 745.0, 744.0, 743.0, 744.0, 746.0, 745.0, 744.0, 743.0, 745.0, 746.0, 746.0, 744.0, 744.0, 747.0, 747.0, 746.0, 744.0, 745.0, 745.0, 745.0, 745.0, 744.0, 744.0, 744.0, 744.0, 744.0, 744.0, 744.0, 745.0, 745.0, 744.0, 747.0, 748.0, 746.0],
      "WindowWidth": [1588.0, 1579.0, 1577.0, 1571.0, 1572.0, 1575.0, 1573.0, 1573.0, 1576.0, 1577.0, 1576.0, 1573.0, 1570.0, 1572.0, 1572.0, 1572.0, 1573.0, 1574.0, 1573.0, 1573.0, 1574.0, 1573.0, 1572.0, 1574.0, 1574.0, 1575.0, 1574.0, 1571.0, 1571.0, 1573.0, 1576.0, 1577.0, 1577.0, 1574.0, 1573.0, 1573.0, 1575.0, 1576.0, 1576.0, 1577.0, 1575.0, 1574.0, 1574.0, 1577.0, 1578.0, 1578.0, 1577.0, 1575.0, 1575.0, 1577.0, 1577.0, 1577.0, 1576.0, 1575.0, 1575.0, 1576.0, 1576.0, 1577.0, 1577.0, 1577.0, 1575.0, 1574.0, 1577.0, 1577.0, 1576.0, 1577.0, 1577.0, 1573.0, 1578.0, 1583.0, 1578.0, 1574.0, 1576.0, 1572.0, 1572.0, 1573.0, 1575.0, 1574.0, 1572.0, 1574.0, 1575.0, 1574.0, 1572.0, 1574.0, 1575.0, 1575.0, 1573.0, 1573.0, 1575.0, 1579.0, 1580.0, 1578.0, 1576.0, 1575.0, 1576.0, 1574.0, 1572.0, 1573.0, 1575.0, 1578.0, 1575.0, 1575.0, 1582.0, 1583.0, 1578.0, 1576.0, 1575.0, 1579.0, 1580.0, 1579.0, 1578.0, 1578.0, 1575.0, 1576.0, 1576.0, 1577.0, 1575.0, 1576.0, 1575.0, 1573.0, 1571.0, 1567.0, 1569.0, 1572.0, 1577.0, 1580.0, 1579.0, 1576.0, 1578.0, 1577.0, 1572.0, 1570.0, 1573.0, 1577.0, 1576.0, 1575.0, 1577.0, 1574.0, 1572.0, 1571.0, 1577.0, 1581.0, 1579.0, 1575.0, 1574.0, 1573.0, 1574.0, 1577.0, 1577.0, 1578.0, 1577.0, 1575.0, 1574.0, 1579.0, 1580.0, 1576.0, 1575.0, 1575.0, 1575.0, 1576.0, 1578.0, 1578.0, 1579.0, 1580.0, 1577.0, 1577.0, 1575.0, 1575.0, 1572.0, 1573.0, 1577.0, 1580.0, 1581.0, 1577.0, 1577.0, 1579.0, 1579.0, 1575.0, 1574.0, 1576.0, 1581.0, 1579.0, 1575.0, 1574.0, 1577.0, 1580.0, 1581.0, 1575.0, 1575.0, 1582.0, 1584.0, 1580.0, 1576.0, 1577.0, 1577.0, 1577.0, 1577.0, 1576.0, 1576.0, 1576.0, 1577.0, 1576.0, 1576.0, 1576.0, 1577.0, 1577.0, 1574.0, 1583.0, 1585.0, 1581.0]
    },
    "slices": {}
  }
}