{
  "AcquisitionMatrixPE": 64,
  "AcquisitionNumber": 1,
  "AcquisitionTime": "10:31:1.207500",
  "BandwidthPerPixelPhaseEncode": 30.637,
  "BaseResolution": 64,
  "BidsGuess": [
    "func",
    "_acq-epfid2_dir-AP_run-7_bold"
],
  "CoilCombinationMethod": "Sum of Squares",
  "CoilString": "C:HEA;HEP",
  "ConversionSoftware": "dcm2niix",
  "ConversionSoftwareVersion": "v1.0.20240202",
  "DerivedVendorReportedEchoSpacing": 0.000510004,
  "DeviceSerialNumber": "35119",
  "DwellTime": 3.5e-06,
  "EchoTime": 0.03,
  "EffectiveEchoSpacing": 0.000510004,
  "FlipAngle": 78,
  "HeudiconvVersion": "1.1.6",
  "ImageComments": "V",
  "ImageOrientationPatientDICOM": [1, 0, 0, 0, 0.904827, -0.425779],
  "ImageOrientationText": "Tra>Cor(-25.2)",
  "ImageType": [
    "ORIGINAL",
    "PRIMARY",
    "M",
    "ND",
    "MOSAIC"
],
  "ImagingFrequency": 123.251802,
  "InPlanePhaseEncodingDirectionDICOM": "COL",
  "InstitutionAddress": "Chaucer Road  15,Cambridge,UK,GB,CB2 2EF",
  "InstitutionName": "MRC-CBU",
  "MRAcquisitionType": "2D",
  "MagneticFieldStrength": 3,
  "Manufacturer": "Siemens",
  "ManufacturersModelName": "TrioTim",
  "MatrixCoilMode": "SENSE",
  "Modality": "MR",
  "NonlinearGradientCorrection": false,
  "PartialFourier": 1,
  "PatientPosition": "HFS",
  "PercentPhaseFOV": 100,
  "PercentSampling": 100,
  "PhaseEncodingDirection": "j-",
  "PhaseEncodingSteps": 64,
  "PhaseResolution": 1,
  "PixelBandwidth": 2230,
  "ProcedureStepDescription": "CBU^Neuroimaging",
  "ProtocolName": "CBU_DWEPI_BOLD210",
  "PulseSequenceDetails": "%SiemensSeq%\\ep2d_bold",
  "ReceiveCoilName": "HeadMatrix",
  "ReconMatrixPE": 64,
  "RepetitionTime": 2,
  "SAR": 0.134505,
  "ScanOptions": "FS",
  "ScanningSequence": "EP",
  "SequenceName": "*epfid2d1_64",
  "SequenceVariant": "SK",
  "SeriesDescription": "CBU_DWEPI_BOLD210",
  "SeriesNumber": 7,
  "ShimSetting": [-7826, -8756, -2054, 827, 86, 418, -65, 142],
  "SliceThickness": 3,
  "SliceTiming": [0, 1.035, 0.06, 1.095, 0.1225, 1.155, 0.1825, 1.2175, 0.2425, 1.2775, 0.305, 1.3375, 0.365, 1.4, 0.425, 1.46, 0.4875, 1.52, 0.5475, 1.5825, 0.6075, 1.6425, 0.67, 1.7025, 0.73, 1.765, 0.79, 1.825, 0.8525, 1.885, 0.9125, 1.9475, 0.9725],
  "SoftwareVersions": "syngo MR B15",
  "SpacingBetweenSlices": 3.75,
  "StationName": "MRC35119",
  "TaskName": "faceprocessing",
  "TotalReadoutTime": 0.0321303,
  "TxRefAmp": 300.239,
  "dcmmeta_affine": [
    [-3.0, 0.0, 0.0, 98.03389739990234],
    [0.0, 2.7144811153411865, -1.596671223640442, -50.36967849731445],
    [0.0, 1.2773369550704956, 3.393101215362549, -80.83121490478516],
    [0.0, 0.0, 0.0, 1.0]
],
  "dcmmeta_reorient_transform": [
    [0.0, -1.0, 0.0, 63.0],
    [1.0, 0.0, 0.0, 0.0],
    [0.0, 0.0, 1.0, 0.0],
    [0.0, 0.0, 0.0, 1.0]
],
  "dcmmeta_shape": [64, 64, 33, 210],
  "dcmmeta_slice_dim": 2,
  "dcmmeta_version": 0.6,
  "global": {
    "const": {
      "AcquisitionMatrix": [64, 0, 0, 64],
      "AngioFlag": "N",
      "BitsAllocated": 16,
      "BitsStored": 12,
      "Columns": 384,
      "EchoNumbers": 1,
      "EchoTime": 30.0,
      "EchoTrainLength": 1,
      "FlipAngle": 78.0,
      "HighBit": 11,
      "ImageOrientationPatient": [1.0, 0.0, 0.0, 0.0, 0.904827, -0.425779],
      "ImagePositionPatient": [-578.033898, -554.959586, 204.014934],
      "ImageType": [
        "ORIGINAL",
        "PRIMARY",
        "M",
        "ND",
        "MOSAIC"
],
      "ImagedNucleus": "1H",
      "ImagingFrequency": 123.251802,
      "InPlanePhaseEncodingDirection": "COL",
      "MRAcquisitionType": "2D",
      "MagneticFieldStrength": 3.0,
      "Manufacturer": "SIEMENS",
      "ManufacturerModelName": "TrioTim",
      "Modality": "MR",
      "NumberOfAverages": 1.0,
      "NumberOfPhaseEncodingSteps": 64,
      "PercentPhaseFieldOfView": 100.0,
      "PercentSampling": 100.0,
      "PerformedProcedureStepStartTime": "095125.984000",
      "PhotometricInterpretation": "MONOCHROME2",
      "PixelAspectRatio": [1, 1],
      "PixelBandwidth": 2230.0,
      "PixelRepresentation": 0,
      "PixelSpacing": [3.0, 3.0],
      "ProtocolName": "CBU_DWEPI_BOLD210",
      "RepetitionTime": 2000.0,
      "Rows": 384,
      "SAR": 0.134505,
      "SamplesPerPixel": 1,
      "ScanOptions": "FS",
      "ScanningSequence": "EP",
      "SequenceName": "*epfid2d1_64",
      "SequenceVariant": "SK",
      "SeriesDescription": "CBU_DWEPI_BOLD210",
      "SeriesNumber": 7,
      "SeriesTime": "103104.328000",
      "SliceLocation": -51.692062,
      "SliceThickness": 3.0,
      "SmallestImagePixelValue": 0,
      "SoftwareVersions": "syngo MR B15",
      "SpacingBetweenSlices": 3.75,
      "SpecificCharacterSet": "ISO_IR 100",
      "StudyID": "1",
      "StudyTime": "095125.921000",
      "TransmitCoilName": "Body",
      "VariableFlipAngleFlag": "N",
      "WindowCenterWidthExplanation": "Algo1",
      "dBdt": 0.0},
    "slices": {}
  },
  "time": {
    "samples": {
      "AcquisitionNumber": [1, 2, 3, 4, 5, 6, 7, 8, 9, 10, 11, 12, 13, 14, 15, 16, 17, 18, 19, 20, 21, 22, 23, 24, 25, 26, 27, 28, 29, 30, 31, 32, 33, 34, 35, 36, 37, 38, 39, 40, 41, 42, 43, 44, 45, 46, 47, 48, 49, 50, 51, 52, 53, 54, 55, 56, 57, 58, 59, 60, 61, 62, 63, 64, 65, 66, 67, 68, 69, 70, 71, 72, 73, 74, 75, 76, 77, 78, 79, 80, 81, 82, 83, 84, 85, 86, 87, 88, 89, 90, 91, 92, 93, 94, 95, 96, 97, 98, 99, 100, 101, 102, 103, 104, 105, 106, 107, 108, 109, 110, 111, 112, 113, 114, 115, 116, 117, 118, 119, 120, 121, 122, 123, 124, 125, 126, 127, 128, 129, 130, 131, 132, 133, 134, 135, 136, 137, 138, 139, 140, 141, 142, 143, 144, 145, 146, 147, 148, 149, 150, 151, 152, 153, 154, 155, 156, 157, 158, 159, 160, 161, 162, 163, 164, 165, 166, 167, 168, 169, 170, 171, 172, 173, 174, 175, 176, 177, 178, 179, 180, 181, 182, 183, 184, 185, 186, 187, 188, 189, 190, 191, 192, 193, 194, 195, 196, 197, 198, 199, 200, 201, 202, 203, 204, 205, 206, 207, 208, 209, 210],
      "AcquisitionTime": ["103101.207500", "103103.215000", "103105.222500", "103107.232500", "103109.240000", "103111.247500", "103113.255000", "103115.262500", "103117.272500", "103119.280000", "103121.287500", "103123.295000", "103125.302500", "103127.312500", "103129.320000", "103131.327500", "103133.335000", "103135.342500", "103137.352500", "103139.360000", "103141.367500", "103143.375000", "103145.385000", "103147.392500", "103149.400000", "103151.407500", "103153.415000", "103155.425000", "103157.432500", "103159.440000", "103201.447500", "103203.455000", "103205.465000", "103207.472500", "103209.480000", "103211.487500", "103213.497500", "103215.505000", "103217.512500", "103219.520000", "103221.527500", "103223.537500", "103225.545000", "103227.552500", "103229.560000", "103231.567500", "103233.577500", "103235.585000", "103237.592500", "103239.600000", "103241.610000", "103243.617500", "103245.625000", "103247.632500", "103249.640000", "103251.650000", "103253.657500", "103255.665000", "103257.672500", "103259.680000", "103301.690000", "103303.697500", "103305.705000", "103307.712500", "103309.720000", "103311.730000", "103313.737500", "103315.745000", "103317.752500", "103319.762500", "103321.770000", "103323.777500", "103325.785000", "103327.792500", "103329.802500", "103331.810000", "103333.817500", "103335.825000", "103337.832500", "103339.842500", "103341.850000", "103343.857500", "103345.865000", "103347.875000", "103349.882500", "103351.890000", "103353.897500", "103355.905000", "103357.915000", "103359.922500", "103401.930000", "103403.937500", "103405.945000", "103407.955000", "103409.962500", "103411.970000", "103413.977500", "103415.987500", "103417.995000", "103420.002500", "103422.010000", "103424.017500", "103426.027500", "103428.035000", "103430.042500", "103432.050000", "103434.057500", "103436.067500", "103438.075000", "103440.082500", "103442.090000", "103444.097500", "103446.107500", "103448.115000", "103450.122500", "103452.130000", "103454.140000", "103456.147500", "103458.155000", "103500.162500", "103502.170000", "103504.180000", "103506.187500", "103508.195000", "103510.202500", "103512.210000", "103514.220000", "103516.227500", "103518.235000", "103520.242500", "103522.252500", "103524.260000", "103526.267500", "103528.275000", "103530.282500", "103532.292500", "103534.300000", "103536.307500", "103538.315000", "103540.322500", "103542.332500", "103544.340000", "103546.347500", "103548.355000", "103550.365000", "103552.372500", "103554.380000", "103556.387500", "103558.395000", "103600.405000", "103602.412500", "103604.420000", "103606.427500", "103608.435000", "103610.445000", "103612.452500", "103614.460000", "103616.467500", "103618.475000", "103620.485000", "103622.492500", "103624.500000", "103626.507500", "103628.517500", "103630.525000", "103632.532500", "103634.540000", "103636.547500", "103638.557500", "103640.565000", "103642.572500", "103644.580000", "103646.587500", "103648.597500", "103650.605000", "103652.612500", "103654.620000", "103656.630000", "103658.637500", "103700.645000", "103702.652500", "103704.660000", "103706.670000", "103708.677500", "103710.685000", "103712.692500", "103714.700000", "103716.710000", "103718.717500", "103720.725000", "103722.732500", "103724.742500", "103726.750000", "103728.757500", "103730.765000", "103732.772500", "103734.782500", "103736.790000", "103738.797500", "103740.805000", "103742.812500", "103744.822500", "103746.830000", "103748.837500", "103750.845000", "103752.855000", "103754.862500", "103756.870000", "103758.877500", "103800.885000"],
      "ContentTime": ["103104.328000", "103106.312000", "103108.312000", "103110.312000", "103112.312000", "103114.312000", "103116.312000", "103118.312000", "103120.312000", "103122.312000", "103124.312000", "103126.312000", "103128.312000", "103130.312000", "103132.312000", "103134.312000", "103136.312000", "103138.312000", "103140.312000", "103142.312000", "103144.312000", "103146.312000", "103148.312000", "103150.812000", "103152.312000", "103154.312000", "103156.312000", "103158.312000", "103200.312000", "103202.312000", "103204.312000", "103206.312000", "103208.312000", "103210.312000", "103212.312000", "103214.312000", "103216.312000", "103218.312000", "103220.312000", "103222.312000", "103224.312000", "103226.312000", "103228.312000", "103230.312000", "103232.312000", "103234.312000", "103236.312000", "103238.312000", "103240.312000", "103242.312000", "103244.312000", "103246.312000", "103248.312000", "103250.312000", "103252.312000", "103254.312000", "103256.312000", "103258.312000", "103300.312000", "103302.312000", "103304.312000", "103306.312000", "103308.312000", "103310.312000", "103312.312000", "103314.312000", "103316.312000", "103318.312000", "103320.312000", "103322.312000", "103324.312000", "103326.312000", "103328.312000", "103330.312000", "103332.312000", "103334.312000", "103336.312000", "103338.312000", "103340.312000", "103342.312000", "103344.312000", "103346.312000", "103348.312000", "103350.312000", "103352.312000", "103354.312000", "103356.312000", "103358.312000", "103400.312000", "103402.312000", "103404.312000", "103406.312000", "103408.312000", "103410.312000", "103412.312000", "103414.312000", "103416.812000", "103418.312000", "103420.312000", "103422.312000", "103424.312000", "103426.312000", "103428.312000", "103430.312000", "103432.312000", "103434.312000", "103436.312000", "103438.312000", "103440.312000", "103442.312000", "103444.312000", "103446.312000", "103448.312000", "103450.312000", "103452.312000", "103454.312000", "103456.312000", "103458.312000", "103500.812000", "103502.312000", "103504.312000", "103506.312000", "103508.312000", "103510.312000", "103512.312000", "103514.812000", "103516.312000", "103518.312000", "103520.312000", "103522.312000", "103524.312000", "103526.312000", "103528.312000", "103530.312000", "103532.312000", "103534.312000", "103536.312000", "103538.312000", "103540.312000", "103542.312000", "103544.312000", "103546.312000", "103548.312000", "103550.312000", "103552.312000", "103554.312000", "103556.312000", "103558.312000", "103600.312000", "103602.312000", "103604.312000", "103606.312000", "103608.312000", "103610.312000", "103612.312000", "103614.312000", "103616.312000", "103618.312000", "103620.312000", "103622.312000", "103624.312000", "103626.312000", "103628.312000", "103630.812000", "103632.312000", "103634.328000", "103636.312000", "103638.312000", "103640.312000", "103642.312000", "103644.312000", "103646.312000", "103648.812000", "103650.312000", "103652.312000", "103654.312000", "103656.312000", "103658.312000", "103700.312000", "103702.312000", "103704.312000", "103706.312000", "103708.312000", "103710.312000", "103712.312000", "103714.312000", "103716.312000", "103718.312000", "103720.312000", "103722.312000", "103724.312000", "103726.312000", "103728.312000", "103730.312000", "103732.312000", "103734.312000", "103736.312000", "103738.312000", "103740.312000", "103742.312000", "103744.312000", "103746.312000", "103748.312000", "103750.312000", "103752.312000", "103754.312000", "103756.312000", "103758.312000", "103800.312000", "103802.359000"],
      "InstanceCreationTime": ["103104.328000", "103106.312000", "103108.312000", "103110.312000", "103112.312000", "103114.312000", "103116.312000", "103118.312000", "103120.312000", "103122.312000", "103124.312000", "103126.312000", "103128.312000", "103130.312000", "103132.312000", "103134.312000", "103136.312000", "103138.312000", "103140.312000", "103142.312000", "103144.312000", "103146.312000", "103148.312000", "103150.812000", "103152.312000", "103154.312000", "103156.312000", "103158.312000", "103200.312000", "103202.312000", "103204.312000", "103206.312000", "103208.312000", "103210.312000", "103212.312000", "103214.312000", "103216.312000", "103218.312000", "103220.312000", "103222.312000", "103224.312000", "103226.312000", "103228.312000", "103230.312000", "103232.312000", "103234.312000", "103236.312000", "103238.312000", "103240.312000", "103242.312000", "103244.312000", "103246.312000", "103248.312000", "103250.312000", "103252.312000", "103254.312000", "103256.312000", "103258.312000", "103300.312000", "103302.312000", "103304.312000", "103306.312000", "103308.312000", "103310.312000", "103312.312000", "103314.312000", "103316.312000", "103318.312000", "103320.312000", "103322.312000", "103324.312000", "103326.312000", "103328.312000", "103330.312000", "103332.312000", "103334.312000", "103336.312000", "103338.312000", "103340.312000", "103342.312000", "103344.312000", "103346.312000", "103348.312000", "103350.312000", "103352.312000", "103354.312000", "103356.312000", "103358.312000", "103400.312000", "103402.312000", "103404.312000", "103406.312000", "103408.312000", "103410.312000", "103412.312000", "103414.312000", "103416.812000", "103418.312000", "103420.312000", "103422.312000", "103424.312000", "103426.312000", "103428.312000", "103430.312000", "103432.312000", "103434.312000", "103436.312000", "103438.312000", "103440.312000", "103442.312000", "103444.312000", "103446.312000", "103448.312000", "103450.312000", "103452.312000", "103454.312000", "103456.312000", "103458.312000", "103500.812000", "103502.312000", "103504.312000", "103506.312000", "103508.312000", "103510.312000", "103512.312000", "103514.812000", "103516.312000", "103518.312000", "103520.312000", "103522.312000", "103524.312000", "103526.312000", "103528.312000", "103530.312000", "103532.312000", "103534.312000", "103536.312000", "103538.312000", "103540.312000", "103542.312000", "103544.312000", "103546.312000", "103548.312000", "103550.312000", "103552.312000", "103554.312000", "103556.312000", "103558.312000", "103600.312000", "103602.312000", "103604.312000", "103606.312000", "103608.312000", "103610.312000", "103612.312000", "103614.312000", "103616.312000", "103618.312000", "103620.312000", "103622.312000", "103624.312000", "103626.312000", "103628.312000", "103630.812000", "103632.312000", "103634.328000", "103636.312000", "103638.312000", "103640.312000", "103642.312000", "103644.312000", "103646.312000", "103648.812000", "103650.312000", "103652.312000", "103654.312000", "103656.312000", "103658.312000", "103700.312000", "103702.312000", "103704.312000", "103706.312000", "103708.312000", "103710.312000", "103712.312000", "103714.312000", "103716.312000", "103718.312000", "103720.312000", "103722.312000", "103724.312000", "103726.312000", "103728.312000", "103730.312000", "103732.312000", "103734.312000", "103736.312000", "103738.312000", "103740.312000", "103742.312000", "103744.312000", "103746.312000", "103748.312000", "103750.312000", "103752.312000", "103754.312000", "103756.312000", "103758.312000", "103800.312000", "103802.359000"],
      "InstanceNumber": [1, 2, 3, 4, 5, 6, 7, 8, 9, 10, 11, 12, 13, 14, 15, 16, 17, 18, 19, 20, 21, 22, 23, 24, 25, 26, 27, 28, 29, 30, 31, 32, 33, 34, 35, 36, 37, 38, 39, 40, 41, 42, 43, 44, 45, 46, 47, 48, 49, 50, 51, 52, 53, 54, 55, 56, 57, 58, 59, 60, 61, 62, 63, 64, 65, 66, 67, 68, 69, 70, 71, 72, 73, 74, 75, 76, 77, 78, 79, 80, 81, 82, 83, 84, 85, 86, 87, 88, 89, 90, 91, 92, 93, 94, 95, 96, 97, 98, 99, 100, 101, 102, 103, 104, 105, 106, 107, 108, 109, 110, 111, 112, 113, 114, 115, 116, 117, 118, 119, 120, 121, 122, 123, 124, 125, 126, 127, 128, 129, 130, 131, 132, 133, 134, 135, 136, 137, 138, 139, 140, 141, 142, 143, 144, 145, 146, 147, 148, 149, 150, 151, 152, 153, 154, 155, 156, 157, 158, 159, 160, 161, 162, 163, 164, 165, 166, 167, 168, 169, 170, 171, 172, 173, 174, 175, 176, 177, 178, 179, 180, 181, 182, 183, 184, 185, 186, 187, 188, 189, 190, 191, 192, 193, 194, 195, 196, 197, 198, 199, 200, 201, 202, 203, 204, 205, 206, 207, 208, 209, 210],
      "LargestImagePixelValue": [1920, 2016, 1827, 1802, 1813, 1801, 1815, 1821, 1838, 1851, 1811, 1824, 1825, 1815, 1797, 1794, 1782, 1810, 1833, 1804, 1810, 1808, 1798, 1822, 1781, 1804, 1843, 1826, 1833, 1811, 1824, 1851, 1808, 1802, 1832, 1828, 1848, 1817, 1804, 1886, 1838, 1810, 1800, 1829, 1921, 1829, 1815, 1832, 1819, 1816, 1817, 1828, 1834, 1836, 1834, 1846, 1829, 1802, 1791, 1843, 1838, 1799, 1811, 1784, 1897, 1827, 1804, 1811, 1836, 1822, 1827, 1840, 1828, 1854, 1821, 1810, 1832, 1813, 1834, 1844, 1879, 1827, 1842, 1859, 1826, 1806, 1844, 1829, 1827, 1842, 1845, 1791, 1794, 1830, 1824, 1830, 1809, 1810, 1813, 1816, 1814, 1822, 1815, 1777, 1807, 1827, 1820, 1813, 1792, 1801, 1805, 1820, 1837, 1839, 1821, 1825, 1832, 1832, 1852, 1819, 1830, 1846, 1855, 1852, 1870, 1789, 1830, 1853, 1844, 1840, 1834, 1817, 1803, 1813, 1826, 1849, 1831, 1850, 1825, 1828, 1822, 1846, 1813, 1805, 1829, 1824, 1812, 1823, 1788, 1796, 1819, 1832, 1812, 1824, 1810, 1824, 1816, 1797, 1831, 1813, 1801, 1805, 1814, 1835, 1844, 1814, 1884, 1828, 1813, 1813, 1878, 1830, 1857, 1851, 1840, 1819, 1811, 1818, 1830, 1841, 1811, 1796, 1823, 1801, 1829, 1796, 1792, 1803, 1820, 1797, 1827, 1842, 1857, 1851, 1841, 1832, 1844, 1835, 1860, 1854, 1857, 1849, 1851, 1839, 1815, 1815, 1863, 1807, 1827, 1825],
      "WindowCenter": [744.0, 741.0, 740.0, 740.0, 739.0, 738.0, 738.0, 738.0, 739.0, 740.0, 740.0, 739.0, 740.0, 742.0, 740.0, 738.0, 738.0, 740.0, 741.0, 740.0, 739.0, 742.0, 742.0, 740.0, 739.0, 740.0, 742.0, 740.0, 739.0, 739.0, 741.0, 740.0, 739.0, 738.0, 740.0, 742.0, 741.0, 740.0, 739.0, 740.0, 740.0, 740.0, 741.0, 741.0, 741.0, 741.0, 742.0, 741.0, 741.0, 740.0, 741.0, 742.0, 741.0, 741.0, 741.0, 741.0, 742.0, 741.0, 739.0, 743.0, 745.0, 742.0, 741.0, 740.0, 742.0, 742.0, 740.0, 740.0, 742.0, 742.0, 741.0, 741.0, 741.0, 742.0, 742.0, 741.0, 741.0, 742.0, 743.0, 744.0, 745.0, 744.0, 742.0, 741.0, 742.0, 741.0, 741.0, 741.0, 741.0, 743.0, 742.0, 740.0, 740.0, 741.0, 742.0, 741.0, 740.0, 741.0, 742.0, 742.0, 741.0, 741.0, 741.0, 739.0, 740.0, 743.0, 744.0, 742.0, 740.0, 740.0, 741.0, 741.0, 741.0, 741.0, 741.0, 742.0, 742.0, 741.0, 741.0, 741.0, 742.0, 742.0, 744.0, 745.0, 743.0, 740.0, 742.0, 742.0, 742.0, 741.0, 742.0, 742.0, 743.0, 742.0, 742.0, 742.0, 742.0, 743.0, 743.0, 743.0, 742.0, 743.0, 744.0, 743.0, 744.0, 744.0, 743.0, 743.0, 742.0, 743.0, 743.0, 743.0, 742.0, 742.0, 743.0, 742.0, 742.0, 743.0, 743.0, 741.0, 740.0, 740.0, 741.0, 742.0, 743.0, 742.0, 741.0, 741.0, 742.0, 743.0, 743.0, 742.0, 742.0, 743.0, 742.0, 740.0, 741.0, 741.0, 742.0, 742.0, 742.0, 742.0, 743.0, 743.0, 743.0, 742.0, 742.0, 743.0, 743.0, 742.0, 743.0, 744.0, 744.0, 744.0, 743.0, 742.0, 742.0, 742.0, 743.0, 744.0, 743.0, 743.0, 744.0, 744.0, 744.0, 743.0, 743.0, 743.0, 744.0, 745.0],
      "WindowWidth": [1576.0, 1569.0, 1565.0, 1564.0, 1563.0, 1561.0, 1560.0, 1561.0, 1564.0, 1566.0, 1566.0, 1564.0, 1566.0, 1570.0, 1565.0, 1561.0, 1562.0, 1567.0, 1568.0, 1564.0, 1563.0, 1570.0, 1570.0, 1565.0, 1562.0, 1566.0, 1571.0, 1566.0, 1564.0, 1563.0, 1567.0, 1567.0, 1563.0, 1562.0, 1566.0, 1570.0, 1569.0, 1566.0, 1564.0, 1565.0, 1565.0, 1565.0, 1567.0, 1567.0, 1567.0, 1568.0, 1571.0, 1569.0, 1567.0, 1566.0, 1568.0, 1569.0, 1569.0, 1569.0, 1568.0, 1568.0, 1570.0, 1568.0, 1564.0, 1573.0, 1578.0, 1570.0, 1568.0, 1566.0, 1571.0, 1569.0, 1565.0, 1567.0, 1571.0, 1570.0, 1568.0, 1567.0, 1568.0, 1570.0, 1569.0, 1568.0, 1567.0, 1570.0, 1573.0, 1575.0, 1578.0, 1574.0, 1571.0, 1569.0, 1569.0, 1568.0, 1569.0, 1567.0, 1568.0, 1573.0, 1570.0, 1565.0, 1567.0, 1568.0, 1570.0, 1569.0, 1567.0, 1567.0, 1570.0, 1570.0, 1567.0, 1569.0, 1567.0, 1564.0, 1566.0, 1574.0, 1576.0, 1571.0, 1566.0, 1566.0, 1567.0, 1568.0, 1568.0, 1568.0, 1569.0, 1572.0, 1571.0, 1568.0, 1569.0, 1569.0, 1570.0, 1570.0, 1575.0, 1577.0, 1572.0, 1566.0, 1571.0, 1571.0, 1570.0, 1569.0, 1570.0, 1571.0, 1572.0, 1571.0, 1570.0, 1570.0, 1571.0, 1572.0, 1571.0, 1572.0, 1571.0, 1573.0, 1574.0, 1573.0, 1574.0, 1575.0, 1573.0, 1572.0, 1571.0, 1572.0, 1573.0, 1573.0, 1571.0, 1571.0, 1573.0, 1571.0, 1570.0, 1572.0, 1572.0, 1567.0, 1565.0, 1566.0, 1569.0, 1571.0, 1572.0, 1571.0, 1568.0, 1567.0, 1570.0, 1573.0, 1572.0, 1569.0, 1572.0, 1574.0, 1570.0, 1566.0, 1567.0, 1568.0, 1571.0, 1571.0, 1571.0, 1571.0, 1574.0, 1573.0, 1572.0, 1571.0, 1571.0, 1572.0, 1572.0, 1571.0, 1572.0, 1575.0, 1575.0, 1575.0, 1573.0, 1572.0, 1570.0, 1570.0, 1573.0, 1575.0, 1572.0, 1572.0, 1575.0, 1574.0, 1574.0, 1572.0, 1573.0, 1573.0, 1576.0, 1578.0]
    },
    "slices": {}
  }
}