{
  "AcquisitionMatrixPE": 64,
  "AcquisitionNumber": 1,
  "AcquisitionTime": "11:01:22.270000",
  "BandwidthPerPixelPhaseEncode": 30.637,
  "BaseResolution": 64,
  "BidsGuess": [
    "func",
    "_acq-epfid2_dir-AP_run-11_bold"
],
  "CoilCombinationMethod": "Sum of Squares",
  "CoilString": "C:HEA;HEP",
  "ConversionSoftware": "dcm2niix",
  "ConversionSoftwareVersion": "v1.0.20240202",
  "DerivedVendorReportedEchoSpacing": 0.000510004,
  "DeviceSerialNumber": "35119",
  "DwellTime": 3.5e-06,
  "EchoTime": 0.03,
  "EffectiveEchoSpacing": 0.000510004,
  "FlipAngle": 78,
  "HeudiconvVersion": "1.1.6",
  "ImageComments": "V",
  "ImageOrientationPatientDICOM": [1, 0, 0, 0, 0.904827, -0.425779],
  "ImageOrientationText": "Tra>Cor(-25.2)",
  "ImageType": [
    "ORIGINAL",
    "PRIMARY",
    "M",
    "ND",
    "MOSAIC"
],
  "ImagingFrequency": 123.251802,
  "InPlanePhaseEncodingDirectionDICOM": "COL",
  "InstitutionAddress": "Chaucer Road  15,Cambridge,UK,GB,CB2 2EF",
  "InstitutionName": "MRC-CBU",
  "MRAcquisitionType": "2D",
  "MagneticFieldStrength": 3,
  "Manufacturer": "Siemens",
  "ManufacturersModelName": "TrioTim",
  "MatrixCoilMode": "SENSE",
  "Modality": "MR",
  "NonlinearGradientCorrection": false,
  "PartialFourier": 1,
  "PatientPosition": "HFS",
  "PercentPhaseFOV": 100,
  "PercentSampling": 100,
  "PhaseEncodingDirection": "j-",
  "PhaseEncodingSteps": 64,
  "PhaseResolution": 1,
  "PixelBandwidth": 2230,
  "ProcedureStepDescription": "CBU^Neuroimaging",
  "ProtocolName": "CBU_DWEPI_BOLD210",
  "PulseSequenceDetails": "%SiemensSeq%\\ep2d_bold",
  "ReceiveCoilName": "HeadMatrix",
  "ReconMatrixPE": 64,
  "RepetitionTime": 2,
  "SAR": 0.134505,
  "ScanOptions": "FS",
  "ScanningSequence": "EP",
  "SequenceName": "*epfid2d1_64",
  "SequenceVariant": "SK",
  "SeriesDescription": "CBU_DWEPI_BOLD210",
  "SeriesNumber": 11,
  "ShimSetting": [-7826, -8756, -2054, 827, 86, 418, -65, 142],
  "SliceThickness": 3,
  "SliceTiming": [0, 1.035, 0.0625, 1.095, 0.1225, 1.1575, 0.1825, 1.2175, 0.245, 1.2775, 0.305, 1.34, 0.365, 1.4, 0.4275, 1.46, 0.4875, 1.5225, 0.5475, 1.5825, 0.61, 1.6425, 0.67, 1.705, 0.73, 1.765, 0.7925, 1.825, 0.8525, 1.8875, 0.9125, 1.9475, 0.975],
  "SoftwareVersions": "syngo MR B15",
  "SpacingBetweenSlices": 3.75,
  "StationName": "MRC35119",
  "TaskName": "faceprocessing",
  "TotalReadoutTime": 0.0321303,
  "TxRefAmp": 300.239,
  "dcmmeta_affine": [
    [-3.0, 0.0, 0.0, 98.03389739990234],
    [0.0, 2.7144811153411865, -1.596671223640442, -50.36967849731445],
    [0.0, 1.2773369550704956, 3.393101215362549, -80.83121490478516],
    [0.0, 0.0, 0.0, 1.0]
],
  "dcmmeta_reorient_transform": [
    [0.0, -1.0, 0.0, 63.0],
    [1.0, 0.0, 0.0, 0.0],
    [0.0, 0.0, 1.0, 0.0],
    [0.0, 0.0, 0.0, 1.0]
],
  "dcmmeta_shape": [64, 64, 33, 210],
  "dcmmeta_slice_dim": 2,
  "dcmmeta_version": 0.6,
  "global": {
    "const": {
      "AcquisitionMatrix": [64, 0, 0, 64],
      "AngioFlag": "N",
      "BitsAllocated": 16,
      "BitsStored": 12,
      "Columns": 384,
      "EchoNumbers": 1,
      "EchoTime": 30.0,
      "EchoTrainLength": 1,
      "FlipAngle": 78.0,
      "HighBit": 11,
      "ImageOrientationPatient": [1.0, 0.0, 0.0, 0.0, 0.904827, -0.425779],
      "ImagePositionPatient": [-578.033898, -554.959586, 204.014934],
      "ImageType": [
        "ORIGINAL",
        "PRIMARY",
        "M",
        "ND",
        "MOSAIC"
],
      "ImagedNucleus": "1H",
      "ImagingFrequency": 123.251802,
      "InPlanePhaseEncodingDirection": "COL",
      "MRAcquisitionType": "2D",
      "MagneticFieldStrength": 3.0,
      "Manufacturer": "SIEMENS",
      "ManufacturerModelName": "TrioTim",
      "Modality": "MR",
      "NumberOfAverages": 1.0,
      "NumberOfPhaseEncodingSteps": 64,
      "PercentPhaseFieldOfView": 100.0,
      "PercentSampling": 100.0,
      "PerformedProcedureStepStartTime": "095125.984000",
      "PhotometricInterpretation": "MONOCHROME2",
      "PixelAspectRatio": [1, 1],
      "PixelBandwidth": 2230.0,
      "PixelRepresentation": 0,
      "PixelSpacing": [3.0, 3.0],
      "ProtocolName": "CBU_DWEPI_BOLD210",
      "RepetitionTime": 2000.0,
      "Rows": 384,
      "SAR": 0.134505,
      "SamplesPerPixel": 1,
      "ScanOptions": "FS",
      "ScanningSequence": "EP",
      "SequenceName": "*epfid2d1_64",
      "SequenceVariant": "SK",
      "SeriesDescription": "CBU_DWEPI_BOLD210",
      "SeriesNumber": 11,
      "SeriesTime": "110125.171000",
      "SliceLocation": -51.692062,
      "SliceThickness": 3.0,
      "SmallestImagePixelValue": 0,
      "SoftwareVersions": "syngo MR B15",
      "SpacingBetweenSlices": 3.75,
      "SpecificCharacterSet": "ISO_IR 100",
      "StudyID": "1",
      "StudyTime": "095125.921000",
      "TransmitCoilName": "Body",
      "VariableFlipAngleFlag": "N",
      "WindowCenterWidthExplanation": "Algo1",
      "dBdt": 0.0},
    "slices": {}
  },
  "time": {
    "samples": {
      "AcquisitionNumber": [1, 2, 3, 4, 5, 6, 7, 8, 9, 10, 11, 12, 13, 14, 15, 16, 17, 18, 19, 20, 21, 22, 23, 24, 25, 26, 27, 28, 29, 30, 31, 32, 33, 34, 35, 36, 37, 38, 39, 40, 41, 42, 43, 44, 45, 46, 47, 48, 49, 50, 51, 52, 53, 54, 55, 56, 57, 58, 59, 60, 61, 62, 63, 64, 65, 66, 67, 68, 69, 70, 71, 72, 73, 74, 75, 76, 77, 78, 79, 80, 81, 82, 83, 84, 85, 86, 87, 88, 89, 90, 91, 92, 93, 94, 95, 96, 97, 98, 99, 100, 101, 102, 103, 104, 105, 106, 107, 108, 109, 110, 111, 112, 113, 114, 115, 116, 117, 118, 119, 120, 121, 122, 123, 124, 125, 126, 127, 128, 129, 130, 131, 132, 133, 134, 135, 136, 137, 138, 139, 140, 141, 142, 143, 144, 145, 146, 147, 148, 149, 150, 151, 152, 153, 154, 155, 156, 157, 158, 159, 160, 161, 162, 163, 164, 165, 166, 167, 168, 169, 170, 171, 172, 173, 174, 175, 176, 177, 178, 179, 180, 181, 182, 183, 184, 185, 186, 187, 188, 189, 190, 191, 192, 193, 194, 195, 196, 197, 198, 199, 200, 201, 202, 203, 204, 205, 206, 207, 208, 209, 210],
      "AcquisitionTime": ["110122.270000", "110124.280000", "110126.287500", "110128.295000", "110130.302500", "110132.310000", "110134.320000", "110136.327500", "110138.335000", "110140.342500", "110142.350000", "110144.360000", "110146.367500", "110148.375000", "110150.382500", "110152.392500", "110154.400000", "110156.407500", "110158.415000", "110200.422500", "110202.432500", "110204.440000", "110206.447500", "110208.455000", "110210.462500", "110212.472500", "110214.480000", "110216.487500", "110218.495000", "110220.505000", "110222.512500", "110224.520000", "110226.527500", "110228.535000", "110230.545000", "110232.552500", "110234.560000", "110236.567500", "110238.575000", "110240.585000", "110242.592500", "110244.600000", "110246.607500", "110248.617500", "110250.625000", "110252.632500", "110254.640000", "110256.647500", "110258.657500", "110300.665000", "110302.672500", "110304.680000", "110306.687500", "110308.697500", "110310.705000", "110312.712500", "110314.720000", "110316.727500", "110318.737500", "110320.745000", "110322.752500", "110324.760000", "110326.770000", "110328.777500", "110330.785000", "110332.792500", "110334.800000", "110336.810000", "110338.817500", "110340.825000", "110342.832500", "110344.840000", "110346.850000", "110348.857500", "110350.865000", "110352.872500", "110354.882500", "110356.890000", "110358.897500", "110400.905000", "110402.912500", "110404.922500", "110406.930000", "110408.937500", "110410.945000", "110412.952500", "110414.962500", "110416.970000", "110418.977500", "110420.985000", "110422.995000", "110425.002500", "110427.010000", "110429.017500", "110431.025000", "110433.035000", "110435.042500", "110437.050000", "110439.057500", "110441.065000", "110443.075000", "110445.082500", "110447.090000", "110449.097500", "110451.105000", "110453.115000", "110455.122500", "110457.130000", "110459.137500", "110501.147500", "110503.155000", "110505.162500", "110507.170000", "110509.177500", "110511.187500", "110513.195000", "110515.202500", "110517.210000", "110519.217500", "110521.227500", "110523.235000", "110525.242500", "110527.250000", "110529.260000", "110531.267500", "110533.275000", "110535.282500", "110537.290000", "110539.300000", "110541.307500", "110543.315000", "110545.322500", "110547.330000", "110549.340000", "110551.347500", "110553.355000", "110555.362500", "110557.372500", "110559.380000", "110601.387500", "110603.395000", "110605.402500", "110607.412500", "110609.420000", "110611.427500", "110613.435000", "110615.442500", "110617.452500", "110619.460000", "110621.467500", "110623.475000", "110625.482500", "110627.492500", "110629.500000", "110631.507500", "110633.515000", "110635.525000", "110637.532500", "110639.540000", "110641.547500", "110643.555000", "110645.565000", "110647.572500", "110649.580000", "110651.587500", "110653.595000", "110655.605000", "110657.612500", "110659.620000", "110701.627500", "110703.637500", "110705.645000", "110707.652500", "110709.660000", "110711.667500", "110713.677500", "110715.685000", "110717.692500", "110719.700000", "110721.707500", "110723.717500", "110725.725000", "110727.732500", "110729.740000", "110731.750000", "110733.757500", "110735.765000", "110737.772500", "110739.780000", "110741.790000", "110743.797500", "110745.805000", "110747.812500", "110749.820000", "110751.830000", "110753.837500", "110755.845000", "110757.852500", "110759.860000", "110801.870000", "110803.877500", "110805.885000", "110807.892500", "110809.902500", "110811.910000", "110813.917500", "110815.925000", "110817.932500", "110819.942500", "110821.950000"],
      "ContentTime": ["110125.171000", "110127.156000", "110129.156000", "110131.156000", "110133.156000", "110135.156000", "110137.156000", "110139.156000", "110141.156000", "110143.156000", "110145.156000", "110147.156000", "110149.156000", "110151.171000", "110153.156000", "110154.656000", "110157.156000", "110159.156000", "110201.171000", "110203.156000", "110205.156000", "110207.156000", "110209.156000", "110211.156000", "110213.156000", "110215.156000", "110217.156000", "110219.156000", "110221.156000", "110223.156000", "110225.156000", "110226.656000", "110229.156000", "110231.156000", "110233.156000", "110235.156000", "110237.156000", "110239.156000", "110241.156000", "110243.156000", "110245.156000", "110247.156000", "110249.156000", "110251.156000", "110253.156000", "110255.156000", "110257.156000", "110258.656000", "110301.156000", "110303.156000", "110305.156000", "110307.156000", "110309.156000", "110311.156000", "110313.156000", "110315.156000", "110317.156000", "110319.156000", "110321.156000", "110323.156000", "110325.156000", "110327.156000", "110329.156000", "110331.156000", "110333.156000", "110335.156000", "110337.156000", "110339.156000", "110341.156000", "110343.156000", "110345.156000", "110347.156000", "110349.156000", "110350.656000", "110353.156000", "110355.156000", "110357.156000", "110359.156000", "110401.156000", "110402.656000", "110405.156000", "110407.156000", "110409.156000", "110411.156000", "110412.656000", "110415.156000", "110417.156000", "110419.156000", "110421.156000", "110423.156000", "110425.156000", "110427.156000", "110429.156000", "110431.156000", "110433.156000", "110434.656000", "110437.156000", "110439.203000", "110441.156000", "110443.156000", "110445.156000", "110447.156000", "110449.156000", "110451.156000", "110453.156000", "110454.656000", "110457.156000", "110459.156000", "110501.156000", "110503.156000", "110505.156000", "110506.656000", "110509.156000", "110511.156000", "110513.156000", "110515.156000", "110517.156000", "110519.156000", "110521.156000", "110523.156000", "110525.156000", "110526.656000", "110529.156000", "110531.156000", "110533.156000", "110535.156000", "110537.156000", "110538.656000", "110541.156000", "110543.156000", "110545.156000", "110547.156000", "110549.156000", "110551.156000", "110553.156000", "110555.156000", "110557.156000", "110559.156000", "110601.156000", "110603.156000", "110605.156000", "110607.156000", "110608.656000", "110610.656000", "110613.156000", "110615.156000", "110617.156000", "110619.156000", "110621.156000", "110623.156000", "110625.156000", "110627.156000", "110629.156000", "110631.156000", "110633.156000", "110635.171000", "110637.156000", "110639.156000", "110641.156000", "110642.656000", "110645.156000", "110647.156000", "110649.156000", "110651.156000", "110653.171000", "110655.156000", "110657.156000", "110659.156000", "110701.156000", "110702.656000", "110705.156000", "110707.156000", "110709.156000", "110711.156000", "110713.156000", "110714.656000", "110717.156000", "110719.156000", "110721.156000", "110723.156000", "110724.656000", "110727.156000", "110729.156000", "110731.156000", "110733.156000", "110734.656000", "110737.156000", "110739.156000", "110741.156000", "110743.156000", "110744.656000", "110747.156000", "110749.156000", "110751.156000", "110753.156000", "110755.156000", "110757.156000", "110759.156000", "110801.156000", "110803.156000", "110805.156000", "110806.656000", "110809.156000", "110811.156000", "110813.156000", "110815.156000", "110817.156000", "110818.656000", "110821.156000", "110822.671000"],
      "InstanceCreationTime": ["110125.171000", "110127.156000", "110129.156000", "110131.156000", "110133.156000", "110135.156000", "110137.156000", "110139.156000", "110141.156000", "110143.156000", "110145.156000", "110147.156000", "110149.156000", "110151.171000", "110153.156000", "110154.656000", "110157.156000", "110159.156000", "110201.171000", "110203.156000", "110205.156000", "110207.156000", "110209.156000", "110211.156000", "110213.156000", "110215.156000", "110217.156000", "110219.156000", "110221.156000", "110223.156000", "110225.156000", "110226.656000", "110229.156000", "110231.156000", "110233.156000", "110235.156000", "110237.156000", "110239.156000", "110241.156000", "110243.156000", "110245.156000", "110247.156000", "110249.156000", "110251.156000", "110253.156000", "110255.156000", "110257.156000", "110258.656000", "110301.156000", "110303.156000", "110305.156000", "110307.156000", "110309.156000", "110311.156000", "110313.156000", "110315.156000", "110317.156000", "110319.156000", "110321.156000", "110323.156000", "110325.156000", "110327.156000", "110329.156000", "110331.156000", "110333.156000", "110335.156000", "110337.156000", "110339.156000", "110341.156000", "110343.156000", "110345.156000", "110347.156000", "110349.156000", "110350.656000", "110353.156000", "110355.156000", "110357.156000", "110359.156000", "110401.156000", "110402.656000", "110405.156000", "110407.156000", "110409.156000", "110411.156000", "110412.656000", "110415.156000", "110417.156000", "110419.156000", "110421.156000", "110423.156000", "110425.156000", "110427.156000", "110429.156000", "110431.156000", "110433.156000", "110434.656000", "110437.156000", "110439.203000", "110441.156000", "110443.156000", "110445.156000", "110447.156000", "110449.156000", "110451.156000", "110453.156000", "110454.656000", "110457.156000", "110459.156000", "110501.156000", "110503.156000", "110505.156000", "110506.656000", "110509.156000", "110511.156000", "110513.156000", "110515.156000", "110517.156000", "110519.156000", "110521.156000", "110523.156000", "110525.156000", "110526.656000", "110529.156000", "110531.156000", "110533.156000", "110535.156000", "110537.156000", "110538.656000", "110541.156000", "110543.156000", "110545.156000", "110547.156000", "110549.156000", "110551.156000", "110553.156000", "110555.156000", "110557.156000", "110559.156000", "110601.156000", "110603.156000", "110605.156000", "110607.156000", "110608.656000", "110610.656000", "110613.156000", "110615.156000", "110617.156000", "110619.156000", "110621.156000", "110623.156000", "110625.156000", "110627.156000", "110629.156000", "110631.156000", "110633.156000", "110635.171000", "110637.156000", "110639.156000", "110641.156000", "110642.656000", "110645.156000", "110647.156000", "110649.156000", "110651.156000", "110653.171000", "110655.156000", "110657.156000", "110659.156000", "110701.156000", "110702.656000", "110705.156000", "110707.156000", "110709.156000", "110711.156000", "110713.156000", "110714.656000", "110717.156000", "110719.156000", "110721.156000", "110723.156000", "110724.656000", "110727.156000", "110729.156000", "110731.156000", "110733.156000", "110734.656000", "110737.156000", "110739.156000", "110741.156000", "110743.156000", "110744.656000", "110747.156000", "110749.156000", "110751.156000", "110753.156000", "110755.156000", "110757.156000", "110759.156000", "110801.156000", "110803.156000", "110805.156000", "110806.656000", "110809.156000", "110811.156000", "110813.156000", "110815.156000", "110817.156000", "110818.656000", "110821.156000", "110822.671000"],
      "InstanceNumber": [1, 2, 3, 4, 5, 6, 7, 8, 9, 10, 11, 12, 13, 14, 15, 16, 17, 18, 19, 20, 21, 22, 23, 24, 25, 26, 27, 28, 29, 30, 31, 32, 33, 34, 35, 36, 37, 38, 39, 40, 41, 42, 43, 44, 45, 46, 47, 48, 49, 50, 51, 52, 53, 54, 55, 56, 57, 58, 59, 60, 61, 62, 63, 64, 65, 66, 67, 68, 69, 70, 71, 72, 73, 74, 75, 76, 77, 78, 79, 80, 81, 82, 83, 84, 85, 86, 87, 88, 89, 90, 91, 92, 93, 94, 95, 96, 97, 98, 99, 100, 101, 102, 103, 104, 105, 106, 107, 108, 109, 110, 111, 112, 113, 114, 115, 116, 117, 118, 119, 120, 121, 122, 123, 124, 125, 126, 127, 128, 129, 130, 131, 132, 133, 134, 135, 136, 137, 138, 139, 140, 141, 142, 143, 144, 145, 146, 147, 148, 149, 150, 151, 152, 153, 154, 155, 156, 157, 158, 159, 160, 161, 162, 163, 164, 165, 166, 167, 168, 169, 170, 171, 172, 173, 174, 175, 176, 177, 178, 179, 180, 181, 182, 183, 184, 185, 186, 187, 188, 189, 190, 191, 192, 193, 194, 195, 196, 197, 198, 199, 200, 201, 202, 203, 204, 205, 206, 207, 208, 209, 210],
      "LargestImagePixelValue": [1900, 1820, 1778, 1796, 1813, 1783, 1775, 1843, 1789, 1768, 1751, 1734, 1853, 1737, 1727, 1761, 1748, 1793, 1774, 1799, 1779, 1792, 1766, 1844, 1780, 1769, 1754, 1740, 1789, 1760, 1770, 1759, 1764, 1792, 1770, 1834, 1821, 1834, 1803, 1785, 1753, 1772, 1752, 1797, 1814, 1787, 1736, 1751, 1773, 1764, 1757, 1923, 1795, 1800, 1816, 1759, 1785, 1816, 1812, 1900, 1781, 1754, 1747, 1760, 1758, 1839, 1743, 1764, 1775, 1762, 1799, 1816, 1808, 1777, 1783, 1805, 1802, 1792, 1780, 1800, 1827, 1816, 1801, 1778, 1773, 1753, 1838, 1768, 1786, 1819, 1817, 1792, 1772, 1775, 1793, 1783, 1788, 1795, 1804, 1807, 1832, 1836, 1750, 1776, 1873, 1768, 1778, 1832, 1853, 1822, 1813, 1878, 1815, 1792, 1823, 1796, 1886, 1824, 1818, 1806, 1776, 1786, 1862, 1769, 1734, 1814, 1827, 1793, 1879, 1795, 1799, 1793, 1803, 1785, 1876, 1771, 1815, 1810, 1863, 1803, 1780, 1768, 1782, 1788, 1766, 1757, 1770, 1769, 1797, 1823, 1917, 1791, 1758, 1780, 1807, 1789, 1913, 1765, 1772, 1869, 1768, 1777, 1795, 1809, 1772, 1831, 1811, 1815, 1852, 1811, 1805, 1814, 1829, 1792, 1806, 1886, 1744, 1783, 1811, 1806, 1789, 1808, 1836, 1731, 1781, 1826, 1786, 1811, 1791, 1786, 1759, 1825, 1781, 1767, 1769, 1786, 1771, 1768, 1740, 1746, 1791, 1823, 1837, 1804, 1790, 1801, 1801, 1835, 1805, 1826],
      "WindowCenter": [753.0, 749.0, 747.0, 747.0, 747.0, 745.0, 745.0, 745.0, 744.0, 744.0, 744.0, 744.0, 744.0, 744.0, 745.0, 745.0, 744.0, 744.0, 745.0, 746.0, 746.0, 746.0, 745.0, 746.0, 746.0, 746.0, 746.0, 745.0, 745.0, 745.0, 745.0, 745.0, 746.0, 747.0, 745.0, 745.0, 746.0, 746.0, 745.0, 745.0, 746.0, 745.0, 744.0, 745.0, 746.0, 746.0, 744.0, 745.0, 747.0, 746.0, 745.0, 745.0, 745.0, 746.0, 747.0, 745.0, 746.0, 748.0, 748.0, 747.0, 745.0, 746.0, 745.0, 745.0, 745.0, 745.0, 745.0, 746.0, 746.0, 746.0, 748.0, 748.0, 746.0, 745.0, 746.0, 748.0, 748.0, 748.0, 747.0, 747.0, 747.0, 747.0, 747.0, 746.0, 746.0, 747.0, 748.0, 747.0, 747.0, 749.0, 748.0, 747.0, 746.0, 748.0, 749.0, 747.0, 746.0, 746.0, 746.0, 747.0, 748.0, 748.0, 747.0, 747.0, 748.0, 746.0, 746.0, 748.0, 749.0, 748.0, 747.0, 747.0, 747.0, 747.0, 747.0, 746.0, 746.0, 747.0, 747.0, 748.0, 747.0, 746.0, 747.0, 745.0, 746.0, 748.0, 748.0, 746.0, 747.0, 747.0, 747.0, 748.0, 747.0, 748.0, 748.0, 748.0, 748.0, 748.0, 749.0, 748.0, 748.0, 748.0, 750.0, 749.0, 748.0, 747.0, 747.0, 747.0, 748.0, 748.0, 748.0, 747.0, 747.0, 748.0, 748.0, 747.0, 748.0, 746.0, 747.0, 746.0, 746.0, 747.0, 748.0, 747.0, 747.0, 747.0, 747.0, 748.0, 747.0, 747.0, 748.0, 748.0, 748.0, 747.0, 748.0, 749.0, 746.0, 747.0, 748.0, 748.0, 749.0, 748.0, 747.0, 745.0, 747.0, 750.0, 749.0, 749.0, 749.0, 748.0, 747.0, 747.0, 747.0, 747.0, 747.0, 747.0, 747.0, 748.0, 747.0, 747.0, 748.0, 749.0, 750.0, 748.0, 747.0, 748.0, 749.0, 750.0, 750.0, 750.0],
      "WindowWidth": [1598.0, 1588.0, 1583.0, 1582.0, 1581.0, 1578.0, 1577.0, 1578.0, 1576.0, 1575.0, 1575.0, 1575.0, 1576.0, 1575.0, 1577.0, 1577.0, 1575.0, 1575.0, 1578.0, 1581.0, 1579.0, 1579.0, 1578.0, 1580.0, 1580.0, 1580.0, 1580.0, 1577.0, 1576.0, 1576.0, 1578.0, 1578.0, 1581.0, 1582.0, 1577.0, 1578.0, 1581.0, 1580.0, 1577.0, 1577.0, 1581.0, 1578.0, 1575.0, 1577.0, 1581.0, 1579.0, 1576.0, 1578.0, 1583.0, 1581.0, 1577.0, 1578.0, 1579.0, 1581.0, 1582.0, 1578.0, 1581.0, 1585.0, 1584.0, 1581.0, 1579.0, 1579.0, 1578.0, 1579.0, 1578.0, 1578.0, 1578.0, 1580.0, 1580.0, 1581.0, 1585.0, 1585.0, 1581.0, 1578.0, 1581.0, 1584.0, 1585.0, 1584.0, 1582.0, 1581.0, 1583.0, 1582.0, 1582.0, 1580.0, 1580.0, 1582.0, 1584.0, 1581.0, 1583.0, 1587.0, 1584.0, 1582.0, 1581.0, 1585.0, 1586.0, 1583.0, 1580.0, 1581.0, 1580.0, 1583.0, 1584.0, 1584.0, 1581.0, 1584.0, 1584.0, 1579.0, 1580.0, 1586.0, 1588.0, 1586.0, 1583.0, 1582.0, 1582.0, 1584.0, 1583.0, 1580.0, 1581.0, 1583.0, 1583.0, 1584.0, 1583.0, 1581.0, 1581.0, 1579.0, 1579.0, 1584.0, 1585.0, 1581.0, 1583.0, 1583.0, 1583.0, 1584.0, 1584.0, 1584.0, 1585.0, 1584.0, 1586.0, 1586.0, 1587.0, 1584.0, 1585.0, 1586.0, 1589.0, 1587.0, 1585.0, 1583.0, 1583.0, 1583.0, 1585.0, 1585.0, 1585.0, 1581.0, 1582.0, 1584.0, 1585.0, 1583.0, 1585.0, 1581.0, 1582.0, 1581.0, 1580.0, 1583.0, 1584.0, 1583.0, 1582.0, 1583.0, 1583.0, 1584.0, 1583.0, 1583.0, 1584.0, 1585.0, 1584.0, 1584.0, 1584.0, 1586.0, 1580.0, 1581.0, 1584.0, 1585.0, 1587.0, 1586.0, 1582.0, 1578.0, 1584.0, 1591.0, 1587.0, 1588.0, 1587.0, 1585.0, 1582.0, 1583.0, 1583.0, 1583.0, 1582.0, 1582.0, 1583.0, 1584.0, 1582.0, 1582.0, 1584.0, 1589.0, 1589.0, 1584.0, 1581.0, 1584.0, 1589.0, 1590.0, 1589.0, 1590.0]
    },
    "slices": {}
  }
}