{
  "AcquisitionMatrixPE": 64,
  "AcquisitionNumber": 1,
  "AcquisitionTime": "10:05:29.112500",
  "BandwidthPerPixelPhaseEncode": 30.637,
  "BaseResolution": 64,
  "BidsGuess": [
    "func",
    "_acq-epfid2_dir-AP_run-4_bold"
],
  "CoilCombinationMethod": "Sum of Squares",
  "CoilString": "C:HEA;HEP",
  "ConversionSoftware": "dcm2niix",
  "ConversionSoftwareVersion": "v1.0.20240202",
  "DerivedVendorReportedEchoSpacing": 0.000510004,
  "DeviceSerialNumber": "35119",
  "DwellTime": 3.5e-06,
  "EchoTime": 0.03,
  "EffectiveEchoSpacing": 0.000510004,
  "FlipAngle": 78,
  "HeudiconvVersion": "1.1.6",
  "ImageComments": "V",
  "ImageOrientationPatientDICOM": [1, 0, 0, 0, 0.864275, -0.50302],
  "ImageOrientationText": "Tra>Cor(-30.2)",
  "ImageType": [
    "ORIGINAL",
    "PRIMARY",
    "M",
    "ND",
    "MOSAIC"
],
  "ImagingFrequency": 123.251842,
  "InPlanePhaseEncodingDirectionDICOM": "COL",
  "InstitutionAddress": "Chaucer Road  15,Cambridge,UK,GB,CB2 2EF",
  "InstitutionName": "MRC-CBU",
  "MRAcquisitionType": "2D",
  "MagneticFieldStrength": 3,
  "Manufacturer": "Siemens",
  "ManufacturersModelName": "TrioTim",
  "MatrixCoilMode": "SENSE",
  "Modality": "MR",
  "NonlinearGradientCorrection": false,
  "PartialFourier": 1,
  "PatientPosition": "HFS",
  "PercentPhaseFOV": 100,
  "PercentSampling": 100,
  "PhaseEncodingDirection": "j-",
  "PhaseEncodingSteps": 64,
  "PhaseResolution": 1,
  "PixelBandwidth": 2230,
  "ProcedureStepDescription": "CBU^Neuroimaging",
  "ProtocolName": "CBU_DWEPI_BOLD210",
  "PulseSequenceDetails": "%SiemensSeq%\\ep2d_bold",
  "ReceiveCoilName": "HeadMatrix",
  "ReconMatrixPE": 64,
  "RepetitionTime": 2,
  "SAR": 0.14732,
  "ScanOptions": "FS",
  "ScanningSequence": "EP",
  "SequenceName": "*epfid2d1_64",
  "SequenceVariant": "SK",
  "SeriesDescription": "CBU_DWEPI_BOLD210",
  "SeriesNumber": 4,
  "ShimSetting": [-7826, -8700, -2142, 684, 117, 328, -67, 52],
  "SliceThickness": 3,
  "SliceTiming": [0, 1.035, 0.0625, 1.095, 0.1225, 1.1575, 0.1825, 1.2175, 0.245, 1.2775, 0.305, 1.34, 0.365, 1.4, 0.4275, 1.46, 0.4875, 1.5225, 0.5475, 1.5825, 0.61, 1.6425, 0.67, 1.705, 0.73, 1.765, 0.7925, 1.825, 0.8525, 1.8875, 0.9125, 1.9475, 0.975],
  "SoftwareVersions": "syngo MR B15",
  "SpacingBetweenSlices": 3.75,
  "StationName": "MRC35119",
  "TaskName": "faceprocessing",
  "TotalReadoutTime": 0.0321303,
  "TxRefAmp": 306.874,
  "dcmmeta_affine": [
    [-3.0, 0.0, 0.0, 95.5],
    [0.0, 2.592824935913086, -1.8863250017166138, -48.33693313598633],
    [0.0, 1.509060025215149, 3.2410311698913574, -90.01751708984375],
    [0.0, 0.0, 0.0, 1.0]
],
  "dcmmeta_reorient_transform": [
    [0.0, -1.0, 0.0, 63.0],
    [1.0, 0.0, 0.0, 0.0],
    [0.0, 0.0, 1.0, 0.0],
    [0.0, 0.0, 0.0, 1.0]
],
  "dcmmeta_shape": [64, 64, 33, 210],
  "dcmmeta_slice_dim": 2,
  "dcmmeta_version": 0.6,
  "global": {
    "const": {
      "AcquisitionMatrix": [64, 0, 0, 64],
      "AngioFlag": "N",
      "BitsAllocated": 16,
      "BitsStored": 12,
      "Columns": 384,
      "EchoNumbers": 1,
      "EchoTime": 30.0,
      "EchoTrainLength": 1,
      "FlipAngle": 78.0,
      "HighBit": 11,
      "ImageOrientationPatient": [1.0, 0.0, 0.0, 0.0, 0.864275, -0.50302],
      "ImagePositionPatient": [-575.5, -529.863043, 246.50286],
      "ImageType": [
        "ORIGINAL",
        "PRIMARY",
        "M",
        "ND",
        "MOSAIC"
],
      "ImagedNucleus": "1H",
      "ImagingFrequency": 123.251842,
      "InPlanePhaseEncodingDirection": "COL",
      "MRAcquisitionType": "2D",
      "MagneticFieldStrength": 3.0,
      "Manufacturer": "SIEMENS",
      "ManufacturerModelName": "TrioTim",
      "Modality": "MR",
      "NumberOfAverages": 1.0,
      "NumberOfPhaseEncodingSteps": 64,
      "PercentPhaseFieldOfView": 100.0,
      "PercentSampling": 100.0,
      "PerformedProcedureStepStartTime": "094055.859000",
      "PhotometricInterpretation": "MONOCHROME2",
      "PixelAspectRatio": [1, 1],
      "PixelBandwidth": 2230.0,
      "PixelRepresentation": 0,
      "PixelSpacing": [3.0, 3.0],
      "ProtocolName": "CBU_DWEPI_BOLD210",
      "RepetitionTime": 2000.0,
      "Rows": 384,
      "SAR": 0.14732,
      "SamplesPerPixel": 1,
      "ScanOptions": "FS",
      "ScanningSequence": "EP",
      "SequenceName": "*epfid2d1_64",
      "SequenceVariant": "SK",
      "SeriesDescription": "CBU_DWEPI_BOLD210",
      "SeriesNumber": 4,
      "SeriesTime": "100532.968000",
      "SliceLocation": -53.485474,
      "SliceThickness": 3.0,
      "SmallestImagePixelValue": 0,
      "SoftwareVersions": "syngo MR B15",
      "SpacingBetweenSlices": 3.75,
      "SpecificCharacterSet": "ISO_IR 100",
      "StudyID": "1",
      "StudyTime": "093537.062000",
      "TransmitCoilName": "Body",
      "VariableFlipAngleFlag": "N",
      "WindowCenterWidthExplanation": "Algo1",
      "dBdt": 0.0},
    "slices": {}
  },
  "time": {
    "samples": {
      "AcquisitionNumber": [1, 2, 3, 4, 5, 6, 7, 8, 9, 10, 11, 12, 13, 14, 15, 16, 17, 18, 19, 20, 21, 22, 23, 24, 25, 26, 27, 28, 29, 30, 31, 32, 33, 34, 35, 36, 37, 38, 39, 40, 41, 42, 43, 44, 45, 46, 47, 48, 49, 50, 51, 52, 53, 54, 55, 56, 57, 58, 59, 60, 61, 62, 63, 64, 65, 66, 67, 68, 69, 70, 71, 72, 73, 74, 75, 76, 77, 78, 79, 80, 81, 82, 83, 84, 85, 86, 87, 88, 89, 90, 91, 92, 93, 94, 95, 96, 97, 98, 99, 100, 101, 102, 103, 104, 105, 106, 107, 108, 109, 110, 111, 112, 113, 114, 115, 116, 117, 118, 119, 120, 121, 122, 123, 124, 125, 126, 127, 128, 129, 130, 131, 132, 133, 134, 135, 136, 137, 138, 139, 140, 141, 142, 143, 144, 145, 146, 147, 148, 149, 150, 151, 152, 153, 154, 155, 156, 157, 158, 159, 160, 161, 162, 163, 164, 165, 166, 167, 168, 169, 170, 171, 172, 173, 174, 175, 176, 177, 178, 179, 180, 181, 182, 183, 184, 185, 186, 187, 188, 189, 190, 191, 192, 193, 194, 195, 196, 197, 198, 199, 200, 201, 202, 203, 204, 205, 206, 207, 208, 209, 210],
      "AcquisitionTime": ["100529.112500", "100531.120000", "100533.130000", "100535.137500", "100537.145000", "100539.152500", "100541.162500", "100543.170000", "100545.177500", "100547.185000", "100549.192500", "100551.202500", "100553.210000", "100555.217500", "100557.225000", "100559.232500", "100601.242500", "100603.250000", "100605.257500", "100607.265000", "100609.272500", "100611.282500", "100613.290000", "100615.297500", "100617.305000", "100619.315000", "100621.322500", "100623.330000", "100625.337500", "100627.345000", "100629.355000", "100631.362500", "100633.370000", "100635.377500", "100637.385000", "100639.395000", "100641.402500", "100643.410000", "100645.417500", "100647.427500", "100649.435000", "100651.442500", "100653.450000", "100655.457500", "100657.467500", "100659.475000", "100701.482500", "100703.490000", "100705.497500", "100707.507500", "100709.515000", "100711.522500", "100713.530000", "100715.540000", "100717.547500", "100719.555000", "100721.562500", "100723.570000", "100725.580000", "100727.587500", "100729.595000", "100731.602500", "100733.610000", "100735.620000", "100737.627500", "100739.635000", "100741.642500", "100743.650000", "100745.660000", "100747.667500", "100749.675000", "100751.682500", "100753.692500", "100755.700000", "100757.707500", "100759.715000", "100801.722500", "100803.732500", "100805.740000", "100807.747500", "100809.755000", "100811.762500", "100813.772500", "100815.780000", "100817.787500", "100819.795000", "100821.805000", "100823.812500", "100825.820000", "100827.827500", "100829.835000", "100831.845000", "100833.852500", "100835.860000", "100837.867500", "100839.875000", "100841.885000", "100843.892500", "100845.900000", "100847.907500", "100849.917500", "100851.925000", "100853.932500", "100855.940000", "100857.947500", "100859.957500", "100901.965000", "100903.972500", "100905.980000", "100907.987500", "100909.997500", "100912.005000", "100914.012500", "100916.020000", "100918.027500", "100920.037500", "100922.045000", "100924.052500", "100926.060000", "100928.070000", "100930.077500", "100932.085000", "100934.092500", "100936.100000", "100938.110000", "100940.117500", "100942.125000", "100944.132500", "100946.140000", "100948.150000", "100950.157500", "100952.165000", "100954.172500", "100956.182500", "100958.190000", "101000.197500", "101002.205000", "101004.212500", "101006.222500", "101008.230000", "101010.237500", "101012.245000", "101014.252500", "101016.262500", "101018.270000", "101020.277500", "101022.285000", "101024.295000", "101026.302500", "101028.310000", "101030.317500", "101032.325000", "101034.335000", "101036.342500", "101038.350000", "101040.357500", "101042.365000", "101044.375000", "101046.382500", "101048.390000", "101050.397500", "101052.407500", "101054.415000", "101056.422500", "101058.430000", "101100.437500", "101102.447500", "101104.455000", "101106.462500", "101108.470000", "101110.477500", "101112.487500", "101114.495000", "101116.502500", "101118.510000", "101120.517500", "101122.527500", "101124.535000", "101126.542500", "101128.550000", "101130.560000", "101132.567500", "101134.575000", "101136.582500", "101138.590000", "101140.600000", "101142.607500", "101144.615000", "101146.622500", "101148.630000", "101150.640000", "101152.647500", "101154.655000", "101156.662500", "101158.672500", "101200.680000", "101202.687500", "101204.695000", "101206.702500", "101208.712500", "101210.720000", "101212.727500", "101214.735000", "101216.742500", "101218.752500", "101220.760000", "101222.767500", "101224.775000", "101226.785000", "101228.792500"],
      "ContentTime": ["100532.984000", "100534.968000", "100536.968000", "100538.968000", "100540.968000", "100542.968000", "100544.968000", "100547.468000", "100548.968000", "100550.968000", "100552.968000", "100554.968000", "100556.968000", "100558.968000", "100600.968000", "100602.968000", "100604.968000", "100606.968000", "100608.968000", "100610.968000", "100612.968000", "100614.968000", "100616.968000", "100618.968000", "100620.968000", "100622.968000", "100624.968000", "100626.968000", "100628.968000", "100630.968000", "100632.968000", "100634.968000", "100636.968000", "100638.968000", "100640.968000", "100642.968000", "100644.968000", "100646.968000", "100648.968000", "100650.968000", "100652.968000", "100654.968000", "100656.968000", "100658.968000", "100700.968000", "100702.968000", "100704.968000", "100706.968000", "100708.968000", "100710.968000", "100712.968000", "100714.968000", "100716.968000", "100718.968000", "100720.968000", "100722.968000", "100724.968000", "100726.968000", "100729.468000", "100730.968000", "100732.968000", "100734.968000", "100736.968000", "100738.968000", "100740.968000", "100742.968000", "100744.968000", "100746.968000", "100748.968000", "100750.968000", "100752.968000", "100754.968000", "100756.968000", "100758.968000", "100800.968000", "100802.968000", "100804.968000", "100806.968000", "100808.968000", "100810.968000", "100812.968000", "100814.968000", "100816.968000", "100818.968000", "100820.968000", "100822.968000", "100824.968000", "100826.968000", "100828.968000", "100830.968000", "100832.968000", "100834.968000", "100836.968000", "100838.968000", "100840.968000", "100842.968000", "100844.968000", "100846.968000", "100848.968000", "100850.968000", "100852.968000", "100854.968000", "100856.968000", "100858.968000", "100900.968000", "100902.968000", "100904.968000", "100906.968000", "100908.968000", "100910.968000", "100912.968000", "100914.968000", "100916.968000", "100918.968000", "100920.968000", "100922.968000", "100924.968000", "100926.968000", "100928.968000", "100930.968000", "100932.968000", "100934.968000", "100936.968000", "100938.968000", "100940.968000", "100942.968000", "100944.968000", "100946.968000", "100948.968000", "100950.968000", "100952.968000", "100954.968000", "100956.968000", "100958.968000", "101000.968000", "101002.968000", "101004.968000", "101006.968000", "101008.968000", "101010.968000", "101012.968000", "101014.968000", "101016.968000", "101018.968000", "101020.968000", "101022.968000", "101024.968000", "101026.968000", "101028.968000", "101030.968000", "101032.968000", "101034.968000", "101036.968000", "101038.968000", "101040.968000", "101042.968000", "101044.968000", "101046.968000", "101048.968000", "101050.968000", "101052.968000", "101054.968000", "101056.968000", "101058.968000", "101100.968000", "101102.968000", "101104.968000", "101106.968000", "101108.968000", "101110.968000", "101112.968000", "101114.968000", "101116.968000", "101118.968000", "101120.968000", "101122.968000", "101124.968000", "101126.968000", "101128.968000", "101130.968000", "101132.968000", "101134.968000", "101136.968000", "101138.968000", "101140.968000", "101142.968000", "101144.968000", "101146.968000", "101148.968000", "101150.968000", "101152.968000", "101154.968000", "101156.968000", "101158.968000", "101200.968000", "101202.968000", "101204.968000", "101206.968000", "101208.968000", "101210.968000", "101212.968000", "101214.968000", "101216.968000", "101218.968000", "101220.968000", "101222.968000", "101224.968000", "101226.968000", "101228.968000", "101230.765000"],
      "InstanceCreationTime": ["100532.984000", "100534.968000", "100536.968000", "100538.968000", "100540.968000", "100542.968000", "100544.968000", "100547.468000", "100548.968000", "100550.968000", "100552.968000", "100554.968000", "100556.968000", "100558.968000", "100600.968000", "100602.968000", "100604.968000", "100606.968000", "100608.968000", "100610.968000", "100612.968000", "100614.968000", "100616.968000", "100618.968000", "100620.968000", "100622.968000", "100624.968000", "100626.968000", "100628.968000", "100630.968000", "100632.968000", "100634.968000", "100636.968000", "100638.968000", "100640.968000", "100642.968000", "100644.968000", "100646.968000", "100648.968000", "100650.968000", "100652.968000", "100654.968000", "100656.968000", "100658.968000", "100700.968000", "100702.968000", "100704.968000", "100706.968000", "100708.968000", "100710.968000", "100712.968000", "100714.968000", "100716.968000", "100718.968000", "100720.968000", "100722.968000", "100724.968000", "100726.968000", "100729.468000", "100730.968000", "100732.968000", "100734.968000", "100736.968000", "100738.968000", "100740.968000", "100742.968000", "100744.968000", "100746.968000", "100748.968000", "100750.968000", "100752.968000", "100754.968000", "100756.968000", "100758.968000", "100800.968000", "100802.968000", "100804.968000", "100806.968000", "100808.968000", "100810.968000", "100812.968000", "100814.968000", "100816.968000", "100818.968000", "100820.968000", "100822.968000", "100824.968000", "100826.968000", "100828.968000", "100830.968000", "100832.968000", "100834.968000", "100836.968000", "100838.968000", "100840.968000", "100842.968000", "100844.968000", "100846.968000", "100848.968000", "100850.968000", "100852.968000", "100854.968000", "100856.968000", "100858.968000", "100900.968000", "100902.968000", "100904.968000", "100906.968000", "100908.968000", "100910.968000", "100912.968000", "100914.968000", "100916.968000", "100918.968000", "100920.968000", "100922.968000", "100924.968000", "100926.968000", "100928.968000", "100930.968000", "100932.968000", "100934.968000", "100936.968000", "100938.968000", "100940.968000", "100942.968000", "100944.968000", "100946.968000", "100948.968000", "100950.968000", "100952.968000", "100954.968000", "100956.968000", "100958.968000", "101000.968000", "101002.968000", "101004.968000", "101006.968000", "101008.968000", "101010.968000", "101012.968000", "101014.968000", "101016.968000", "101018.968000", "101020.968000", "101022.968000", "101024.968000", "101026.968000", "101028.968000", "101030.968000", "101032.968000", "101034.968000", "101036.968000", "101038.968000", "101040.968000", "101042.968000", "101044.968000", "101046.968000", "101048.968000", "101050.968000", "101052.968000", "101054.968000", "101056.968000", "101058.968000", "101100.968000", "101102.968000", "101104.968000", "101106.968000", "101108.968000", "101110.968000", "101112.968000", "101114.968000", "101116.968000", "101118.968000", "101120.968000", "101122.968000", "101124.968000", "101126.968000", "101128.968000", "101130.968000", "101132.968000", "101134.968000", "101136.968000", "101138.968000", "101140.968000", "101142.968000", "101144.968000", "101146.968000", "101148.968000", "101150.968000", "101152.968000", "101154.968000", "101156.968000", "101158.968000", "101200.968000", "101202.968000", "101204.968000", "101206.968000", "101208.968000", "101210.968000", "101212.968000", "101214.968000", "101216.968000", "101218.968000", "101220.968000", "101222.968000", "101224.968000", "101226.968000", "101228.968000", "101230.765000"],
      "InstanceNumber": [1, 2, 3, 4, 5, 6, 7, 8, 9, 10, 11, 12, 13, 14, 15, 16, 17, 18, 19, 20, 21, 22, 23, 24, 25, 26, 27, 28, 29, 30, 31, 32, 33, 34, 35, 36, 37, 38, 39, 40, 41, 42, 43, 44, 45, 46, 47, 48, 49, 50, 51, 52, 53, 54, 55, 56, 57, 58, 59, 60, 61, 62, 63, 64, 65, 66, 67, 68, 69, 70, 71, 72, 73, 74, 75, 76, 77, 78, 79, 80, 81, 82, 83, 84, 85, 86, 87, 88, 89, 90, 91, 92, 93, 94, 95, 96, 97, 98, 99, 100, 101, 102, 103, 104, 105, 106, 107, 108, 109, 110, 111, 112, 113, 114, 115, 116, 117, 118, 119, 120, 121, 122, 123, 124, 125, 126, 127, 128, 129, 130, 131, 132, 133, 134, 135, 136, 137, 138, 139, 140, 141, 142, 143, 144, 145, 146, 147, 148, 149, 150, 151, 152, 153, 154, 155, 156, 157, 158, 159, 160, 161, 162, 163, 164, 165, 166, 167, 168, 169, 170, 171, 172, 173, 174, 175, 176, 177, 178, 179, 180, 181, 182, 183, 184, 185, 186, 187, 188, 189, 190, 191, 192, 193, 194, 195, 196, 197, 198, 199, 200, 201, 202, 203, 204, 205, 206, 207, 208, 209, 210],
      "LargestImagePixelValue": [1814, 1720, 1703, 1695, 1680, 1699, 1675, 1696, 1702, 1694, 1695, 1702, 1692, 1698, 1686, 1696, 1713, 1705, 1693, 1702, 1700, 1704, 1701, 1699, 1716, 1694, 1702, 1710, 1708, 1715, 1696, 1705, 1698, 1705, 1682, 1701, 1701, 1691, 1705, 1701, 1695, 1707, 1706, 1702, 1683, 1692, 1671, 1687, 1701, 1698, 1711, 1698, 1682, 1698, 1700, 1691, 1691, 1682, 1694, 1711, 1698, 1710, 1715, 1700, 1712, 1725, 1724, 1696, 1714, 1702, 1686, 1709, 1691, 1709, 1684, 1709, 1683, 1692, 1698, 1697, 1701, 1699, 1694, 1684, 1698, 1690, 1711, 1710, 1696, 1701, 1696, 1708, 1686, 1692, 1688, 1703, 1692, 1679, 1686, 1681, 1683, 1690, 1681, 1682, 1683, 1694, 1681, 1697, 1695, 1687, 1705, 1695, 1686, 1686, 1686, 1666, 1710, 1679, 1689, 1699, 1672, 1682, 1669, 1672, 1676, 1689, 1681, 1690, 1682, 1679, 1693, 1685, 1688, 1688, 1672, 1662, 1666, 1675, 1669, 1672, 1683, 1664, 1677, 1675, 1690, 1671, 1673, 1688, 1679, 1660, 1666, 1663, 1668, 1645, 1672, 1665, 1669, 1664, 1661, 1673, 1663, 1683, 1665, 1681, 1667, 1661, 1674, 1666, 1667, 1663, 1660, 1685, 1659, 1649, 1675, 1662, 1648, 1653, 1655, 1667, 1664, 1655, 1647, 1665, 1652, 1656, 1652, 1667, 1665, 1674, 1660, 1650, 1656, 1643, 1654, 1653, 1653, 1655, 1654, 1642, 1654, 1645, 1635, 1653, 1654, 1655, 1652, 1660, 1656, 1658],
      "WindowCenter": [720.0, 716.0, 717.0, 719.0, 721.0, 721.0, 721.0, 720.0, 719.0, 719.0, 718.0, 718.0, 719.0, 718.0, 718.0, 717.0, 718.0, 718.0, 718.0, 718.0, 717.0, 717.0, 717.0, 717.0, 717.0, 718.0, 719.0, 719.0, 719.0, 719.0, 719.0, 719.0, 719.0, 719.0, 720.0, 719.0, 720.0, 720.0, 719.0, 719.0, 719.0, 719.0, 719.0, 719.0, 719.0, 719.0, 720.0, 719.0, 719.0, 719.0, 718.0, 718.0, 718.0, 719.0, 720.0, 720.0, 720.0, 719.0, 718.0, 717.0, 717.0, 718.0, 718.0, 719.0, 719.0, 719.0, 719.0, 719.0, 719.0, 719.0, 719.0, 719.0, 720.0, 720.0, 720.0, 720.0, 720.0, 720.0, 721.0, 722.0, 721.0, 720.0, 721.0, 720.0, 720.0, 720.0, 719.0, 719.0, 719.0, 719.0, 719.0, 718.0, 717.0, 717.0, 718.0, 719.0, 719.0, 719.0, 719.0, 719.0, 719.0, 718.0, 718.0, 718.0, 718.0, 718.0, 719.0, 721.0, 721.0, 721.0, 720.0, 720.0, 720.0, 720.0, 721.0, 721.0, 721.0, 719.0, 719.0, 718.0, 718.0, 718.0, 718.0, 718.0, 718.0, 718.0, 718.0, 718.0, 718.0, 718.0, 719.0, 719.0, 719.0, 719.0, 720.0, 719.0, 720.0, 721.0, 721.0, 721.0, 720.0, 719.0, 719.0, 719.0, 719.0, 719.0, 720.0, 719.0, 719.0, 720.0, 719.0, 719.0, 719.0, 719.0, 719.0, 719.0, 719.0, 719.0, 719.0, 720.0, 719.0, 720.0, 720.0, 720.0, 719.0, 720.0, 720.0, 720.0, 720.0, 720.0, 720.0, 720.0, 719.0, 719.0, 719.0, 719.0, 719.0, 719.0, 720.0, 720.0, 719.0, 720.0, 719.0, 719.0, 719.0, 719.0, 720.0, 719.0, 720.0, 720.0, 720.0, 720.0, 720.0, 720.0, 721.0, 720.0, 721.0, 720.0, 720.0, 720.0, 721.0, 720.0, 721.0, 721.0, 720.0, 720.0, 721.0, 721.0, 721.0, 721.0],
      "WindowWidth": [1525.0, 1515.0, 1519.0, 1523.0, 1527.0, 1528.0, 1528.0, 1525.0, 1523.0, 1521.0, 1521.0, 1521.0, 1521.0, 1521.0, 1519.0, 1519.0, 1519.0, 1519.0, 1520.0, 1519.0, 1518.0, 1517.0, 1517.0, 1517.0, 1519.0, 1520.0, 1522.0, 1522.0, 1523.0, 1524.0, 1523.0, 1523.0, 1521.0, 1523.0, 1524.0, 1522.0, 1524.0, 1524.0, 1524.0, 1523.0, 1522.0, 1522.0, 1522.0, 1523.0, 1523.0, 1523.0, 1524.0, 1523.0, 1522.0, 1521.0, 1520.0, 1520.0, 1521.0, 1523.0, 1524.0, 1524.0, 1526.0, 1523.0, 1521.0, 1518.0, 1518.0, 1520.0, 1521.0, 1522.0, 1524.0, 1522.0, 1523.0, 1522.0, 1523.0, 1522.0, 1522.0, 1523.0, 1524.0, 1525.0, 1525.0, 1525.0, 1526.0, 1526.0, 1527.0, 1530.0, 1529.0, 1526.0, 1526.0, 1525.0, 1524.0, 1524.0, 1524.0, 1522.0, 1523.0, 1523.0, 1521.0, 1519.0, 1519.0, 1519.0, 1521.0, 1522.0, 1523.0, 1522.0, 1522.0, 1523.0, 1521.0, 1521.0, 1520.0, 1520.0, 1520.0, 1520.0, 1523.0, 1527.0, 1528.0, 1527.0, 1526.0, 1524.0, 1526.0, 1526.0, 1527.0, 1528.0, 1527.0, 1523.0, 1522.0, 1521.0, 1521.0, 1521.0, 1521.0, 1521.0, 1520.0, 1521.0, 1521.0, 1520.0, 1520.0, 1521.0, 1522.0, 1523.0, 1524.0, 1523.0, 1525.0, 1524.0, 1524.0, 1528.0, 1529.0, 1528.0, 1526.0, 1524.0, 1523.0, 1523.0, 1523.0, 1523.0, 1525.0, 1524.0, 1524.0, 1525.0, 1524.0, 1524.0, 1523.0, 1522.0, 1523.0, 1523.0, 1523.0, 1523.0, 1524.0, 1525.0, 1523.0, 1524.0, 1525.0, 1524.0, 1522.0, 1525.0, 1525.0, 1524.0, 1524.0, 1524.0, 1524.0, 1526.0, 1524.0, 1524.0, 1523.0, 1522.0, 1523.0, 1523.0, 1525.0, 1525.0, 1524.0, 1524.0, 1523.0, 1523.0, 1524.0, 1524.0, 1525.0, 1524.0, 1524.0, 1525.0, 1525.0, 1526.0, 1526.0, 1525.0, 1527.0, 1526.0, 1526.0, 1526.0, 1526.0, 1526.0, 1527.0, 1526.0, 1527.0, 1527.0, 1525.0, 1526.0, 1528.0, 1528.0, 1528.0, 1528.0]
    },
    "slices": {}
  }
}