{
  "AcquisitionMatrixPE": 64,
  "AcquisitionNumber": 1,
  "AcquisitionTime": "10:35:11.202500",
  "BandwidthPerPixelPhaseEncode": 30.637,
  "BaseResolution": 64,
  "BidsGuess": [
    "func",
    "_acq-epfid2_dir-AP_run-8_bold"
],
  "CoilCombinationMethod": "Sum of Squares",
  "CoilString": "C:HEA;HEP",
  "ConversionSoftware": "dcm2niix",
  "ConversionSoftwareVersion": "v1.0.20240202",
  "DerivedVendorReportedEchoSpacing": 0.000510004,
  "DeviceSerialNumber": "35119",
  "DwellTime": 3.5e-06,
  "EchoTime": 0.03,
  "EffectiveEchoSpacing": 0.000510004,
  "FlipAngle": 78,
  "HeudiconvVersion": "1.1.6",
  "ImageComments": "V",
  "ImageOrientationPatientDICOM": [1, 0, 0, 0, 0.864275, -0.50302],
  "ImageOrientationText": "Tra>Cor(-30.2)",
  "ImageType": [
    "ORIGINAL",
    "PRIMARY",
    "M",
    "ND",
    "MOSAIC"
],
  "ImagingFrequency": 123.251842,
  "InPlanePhaseEncodingDirectionDICOM": "COL",
  "InstitutionAddress": "Chaucer Road  15,Cambridge,UK,GB,CB2 2EF",
  "InstitutionName": "MRC-CBU",
  "MRAcquisitionType": "2D",
  "MagneticFieldStrength": 3,
  "Manufacturer": "Siemens",
  "ManufacturersModelName": "TrioTim",
  "MatrixCoilMode": "SENSE",
  "Modality": "MR",
  "NonlinearGradientCorrection": false,
  "PartialFourier": 1,
  "PatientPosition": "HFS",
  "PercentPhaseFOV": 100,
  "PercentSampling": 100,
  "PhaseEncodingDirection": "j-",
  "PhaseEncodingSteps": 64,
  "PhaseResolution": 1,
  "PixelBandwidth": 2230,
  "ProcedureStepDescription": "CBU^Neuroimaging",
  "ProtocolName": "CBU_DWEPI_BOLD210",
  "PulseSequenceDetails": "%SiemensSeq%\\ep2d_bold",
  "ReceiveCoilName": "HeadMatrix",
  "ReconMatrixPE": 64,
  "RepetitionTime": 2,
  "SAR": 0.14732,
  "ScanOptions": "FS",
  "ScanningSequence": "EP",
  "SequenceName": "*epfid2d1_64",
  "SequenceVariant": "SK",
  "SeriesDescription": "CBU_DWEPI_BOLD210",
  "SeriesNumber": 8,
  "ShimSetting": [-7826, -8700, -2142, 684, 117, 328, -67, 52],
  "SliceThickness": 3,
  "SliceTiming": [0, 1.0325, 0.06, 1.095, 0.12, 1.155, 0.1825, 1.215, 0.2425, 1.2775, 0.3025, 1.3375, 0.365, 1.3975, 0.425, 1.46, 0.485, 1.52, 0.5475, 1.58, 0.6075, 1.6425, 0.6675, 1.7025, 0.73, 1.7625, 0.79, 1.825, 0.85, 1.885, 0.9125, 1.945, 0.9725],
  "SoftwareVersions": "syngo MR B15",
  "SpacingBetweenSlices": 3.75,
  "StationName": "MRC35119",
  "TaskName": "faceprocessing",
  "TotalReadoutTime": 0.0321303,
  "TxRefAmp": 306.874,
  "dcmmeta_affine": [
    [-3.0, 0.0, 0.0, 95.5],
    [0.0, 2.592824935913086, -1.8863250017166138, -48.33693313598633],
    [0.0, 1.509060025215149, 3.2410311698913574, -90.01751708984375],
    [0.0, 0.0, 0.0, 1.0]
],
  "dcmmeta_reorient_transform": [
    [0.0, -1.0, 0.0, 63.0],
    [1.0, 0.0, 0.0, 0.0],
    [0.0, 0.0, 1.0, 0.0],
    [0.0, 0.0, 0.0, 1.0]
],
  "dcmmeta_shape": [64, 64, 33, 210],
  "dcmmeta_slice_dim": 2,
  "dcmmeta_version": 0.6,
  "global": {
    "const": {
      "AcquisitionMatrix": [64, 0, 0, 64],
      "AngioFlag": "N",
      "BitsAllocated": 16,
      "BitsStored": 12,
      "Columns": 384,
      "EchoNumbers": 1,
      "EchoTime": 30.0,
      "EchoTrainLength": 1,
      "FlipAngle": 78.0,
      "HighBit": 11,
      "ImageOrientationPatient": [1.0, 0.0, 0.0, 0.0, 0.864275, -0.50302],
      "ImagePositionPatient": [-575.5, -529.863043, 246.50286],
      "ImageType": [
        "ORIGINAL",
        "PRIMARY",
        "M",
        "ND",
        "MOSAIC"
],
      "ImagedNucleus": "1H",
      "ImagingFrequency": 123.251842,
      "InPlanePhaseEncodingDirection": "COL",
      "MRAcquisitionType": "2D",
      "MagneticFieldStrength": 3.0,
      "Manufacturer": "SIEMENS",
      "ManufacturerModelName": "TrioTim",
      "Modality": "MR",
      "NumberOfAverages": 1.0,
      "NumberOfPhaseEncodingSteps": 64,
      "PercentPhaseFieldOfView": 100.0,
      "PercentSampling": 100.0,
      "PerformedProcedureStepStartTime": "094055.859000",
      "PhotometricInterpretation": "MONOCHROME2",
      "PixelAspectRatio": [1, 1],
      "PixelBandwidth": 2230.0,
      "PixelRepresentation": 0,
      "PixelSpacing": [3.0, 3.0],
      "ProtocolName": "CBU_DWEPI_BOLD210",
      "RepetitionTime": 2000.0,
      "Rows": 384,
      "SAR": 0.14732,
      "SamplesPerPixel": 1,
      "ScanOptions": "FS",
      "ScanningSequence": "EP",
      "SequenceName": "*epfid2d1_64",
      "SequenceVariant": "SK",
      "SeriesDescription": "CBU_DWEPI_BOLD210",
      "SeriesNumber": 8,
      "SeriesTime": "103515.171000",
      "SliceLocation": -53.485474,
      "SliceThickness": 3.0,
      "SmallestImagePixelValue": 0,
      "SoftwareVersions": "syngo MR B15",
      "SpacingBetweenSlices": 3.75,
      "SpecificCharacterSet": "ISO_IR 100",
      "StudyID": "1",
      "StudyTime": "093537.062000",
      "TransmitCoilName": "Body",
      "VariableFlipAngleFlag": "N",
      "WindowCenterWidthExplanation": "Algo1",
      "dBdt": 0.0},
    "slices": {}
  },
  "time": {
    "samples": {
      "AcquisitionNumber": [1, 2, 3, 4, 5, 6, 7, 8, 9, 10, 11, 12, 13, 14, 15, 16, 17, 18, 19, 20, 21, 22, 23, 24, 25, 26, 27, 28, 29, 30, 31, 32, 33, 34, 35, 36, 37, 38, 39, 40, 41, 42, 43, 44, 45, 46, 47, 48, 49, 50, 51, 52, 53, 54, 55, 56, 57, 58, 59, 60, 61, 62, 63, 64, 65, 66, 67, 68, 69, 70, 71, 72, 73, 74, 75, 76, 77, 78, 79, 80, 81, 82, 83, 84, 85, 86, 87, 88, 89, 90, 91, 92, 93, 94, 95, 96, 97, 98, 99, 100, 101, 102, 103, 104, 105, 106, 107, 108, 109, 110, 111, 112, 113, 114, 115, 116, 117, 118, 119, 120, 121, 122, 123, 124, 125, 126, 127, 128, 129, 130, 131, 132, 133, 134, 135, 136, 137, 138, 139, 140, 141, 142, 143, 144, 145, 146, 147, 148, 149, 150, 151, 152, 153, 154, 155, 156, 157, 158, 159, 160, 161, 162, 163, 164, 165, 166, 167, 168, 169, 170, 171, 172, 173, 174, 175, 176, 177, 178, 179, 180, 181, 182, 183, 184, 185, 186, 187, 188, 189, 190, 191, 192, 193, 194, 195, 196, 197, 198, 199, 200, 201, 202, 203, 204, 205, 206, 207, 208, 209, 210],
      "AcquisitionTime": ["103511.202500", "103513.210000", "103515.217500", "103517.225000", "103519.235000", "103521.242500", "103523.250000", "103525.257500", "103527.265000", "103529.275000", "103531.282500", "103533.290000", "103535.297500", "103537.305000", "103539.315000", "103541.322500", "103543.330000", "103545.337500", "103547.347500", "103549.355000", "103551.362500", "103553.370000", "103555.377500", "103557.387500", "103559.395000", "103601.402500", "103603.410000", "103605.417500", "103607.427500", "103609.435000", "103611.442500", "103613.450000", "103615.460000", "103617.467500", "103619.475000", "103621.482500", "103623.490000", "103625.500000", "103627.507500", "103629.515000", "103631.522500", "103633.530000", "103635.540000", "103637.547500", "103639.555000", "103641.562500", "103643.572500", "103645.580000", "103647.587500", "103649.595000", "103651.602500", "103653.612500", "103655.620000", "103657.627500", "103659.635000", "103701.642500", "103703.652500", "103705.660000", "103707.667500", "103709.675000", "103711.682500", "103713.692500", "103715.700000", "103717.707500", "103719.715000", "103721.725000", "103723.732500", "103725.740000", "103727.747500", "103729.755000", "103731.765000", "103733.772500", "103735.780000", "103737.787500", "103739.795000", "103741.805000", "103743.812500", "103745.820000", "103747.827500", "103749.837500", "103751.845000", "103753.852500", "103755.860000", "103757.867500", "103759.877500", "103801.885000", "103803.892500", "103805.900000", "103807.907500", "103809.917500", "103811.925000", "103813.932500", "103815.940000", "103817.950000", "103819.957500", "103821.965000", "103823.972500", "103825.980000", "103827.990000", "103829.997500", "103832.005000", "103834.012500", "103836.020000", "103838.030000", "103840.037500", "103842.045000", "103844.052500", "103846.060000", "103848.070000", "103850.077500", "103852.085000", "103854.092500", "103856.102500", "103858.110000", "103900.117500", "103902.125000", "103904.132500", "103906.142500", "103908.150000", "103910.157500", "103912.165000", "103914.172500", "103916.182500", "103918.190000", "103920.197500", "103922.205000", "103924.215000", "103926.222500", "103928.230000", "103930.237500", "103932.245000", "103934.255000", "103936.262500", "103938.270000", "103940.277500", "103942.285000", "103944.295000", "103946.302500", "103948.310000", "103950.317500", "103952.327500", "103954.335000", "103956.342500", "103958.350000", "104000.357500", "104002.367500", "104004.375000", "104006.382500", "104008.390000", "104010.397500", "104012.407500", "104014.415000", "104016.422500", "104018.430000", "104020.440000", "104022.447500", "104024.455000", "104026.462500", "104028.470000", "104030.480000", "104032.487500", "104034.495000", "104036.502500", "104038.510000", "104040.520000", "104042.527500", "104044.535000", "104046.542500", "104048.550000", "104050.560000", "104052.567500", "104054.575000", "104056.582500", "104058.592500", "104100.600000", "104102.607500", "104104.615000", "104106.622500", "104108.632500", "104110.640000", "104112.647500", "104114.655000", "104116.662500", "104118.672500", "104120.680000", "104122.687500", "104124.695000", "104126.705000", "104128.712500", "104130.720000", "104132.727500", "104134.735000", "104136.745000", "104138.752500", "104140.760000", "104142.767500", "104144.775000", "104146.785000", "104148.792500", "104150.800000", "104152.807500", "104154.817500", "104156.825000", "104158.832500", "104200.840000", "104202.847500", "104204.857500", "104206.865000", "104208.872500", "104210.880000"],
      "ContentTime": ["103515.187000", "103517.171000", "103519.171000", "103521.171000", "103523.171000", "103525.171000", "103527.171000", "103529.171000", "103531.171000", "103533.171000", "103535.171000", "103537.171000", "103539.171000", "103541.171000", "103543.171000", "103545.171000", "103547.171000", "103549.171000", "103551.171000", "103553.171000", "103555.171000", "103557.171000", "103559.171000", "103601.171000", "103603.171000", "103605.171000", "103607.171000", "103609.171000", "103611.171000", "103613.171000", "103615.171000", "103617.171000", "103619.171000", "103621.171000", "103623.171000", "103625.171000", "103627.171000", "103629.171000", "103631.171000", "103633.171000", "103635.171000", "103637.171000", "103639.171000", "103641.171000", "103643.171000", "103645.171000", "103647.171000", "103649.171000", "103651.171000", "103653.171000", "103655.171000", "103657.171000", "103659.171000", "103701.171000", "103703.171000", "103705.171000", "103707.171000", "103709.171000", "103711.171000", "103713.171000", "103715.171000", "103717.171000", "103719.171000", "103721.171000", "103723.171000", "103725.171000", "103727.171000", "103729.171000", "103731.171000", "103733.171000", "103735.171000", "103737.171000", "103739.171000", "103741.171000", "103743.171000", "103745.171000", "103747.171000", "103749.171000", "103751.171000", "103753.171000", "103755.171000", "103757.171000", "103759.171000", "103801.171000", "103803.171000", "103805.671000", "103807.171000", "103809.171000", "103811.671000", "103813.171000", "103815.171000", "103817.171000", "103819.171000", "103821.171000", "103823.171000", "103825.171000", "103827.171000", "103829.171000", "103831.171000", "103833.171000", "103835.171000", "103837.171000", "103839.171000", "103841.171000", "103843.171000", "103845.171000", "103847.171000", "103849.171000", "103851.171000", "103853.171000", "103855.171000", "103857.171000", "103859.171000", "103901.171000", "103903.171000", "103905.171000", "103907.171000", "103909.171000", "103911.171000", "103913.171000", "103915.171000", "103917.171000", "103919.171000", "103921.171000", "103923.171000", "103925.171000", "103927.171000", "103929.171000", "103931.171000", "103933.171000", "103935.171000", "103937.171000", "103939.171000", "103941.171000", "103943.171000", "103945.171000", "103947.171000", "103949.171000", "103951.171000", "103953.171000", "103955.171000", "103957.171000", "103959.171000", "104001.171000", "104003.671000", "104005.171000", "104007.171000", "104009.171000", "104011.171000", "104013.171000", "104015.171000", "104017.171000", "104019.171000", "104021.171000", "104023.171000", "104025.171000", "104027.171000", "104029.171000", "104031.171000", "104033.171000", "104035.171000", "104037.171000", "104039.171000", "104041.171000", "104043.171000", "104045.171000", "104047.171000", "104049.171000", "104051.171000", "104053.171000", "104055.171000", "104057.171000", "104059.171000", "104101.171000", "104103.171000", "104105.171000", "104107.171000", "104109.171000", "104111.171000", "104113.171000", "104115.171000", "104117.171000", "104119.171000", "104121.171000", "104123.171000", "104125.171000", "104127.171000", "104129.171000", "104131.171000", "104133.671000", "104135.171000", "104137.171000", "104139.171000", "104141.171000", "104143.171000", "104145.171000", "104147.171000", "104149.171000", "104151.171000", "104153.171000", "104155.171000", "104157.171000", "104159.171000", "104201.671000", "104203.171000", "104205.671000", "104207.171000", "104209.171000", "104211.171000", "104213.031000"],
      "InstanceCreationTime": ["103515.187000", "103517.171000", "103519.171000", "103521.171000", "103523.171000", "103525.171000", "103527.171000", "103529.171000", "103531.171000", "103533.171000", "103535.171000", "103537.171000", "103539.171000", "103541.171000", "103543.171000", "103545.171000", "103547.171000", "103549.171000", "103551.171000", "103553.171000", "103555.171000", "103557.171000", "103559.171000", "103601.171000", "103603.171000", "103605.171000", "103607.171000", "103609.171000", "103611.171000", "103613.171000", "103615.171000", "103617.171000", "103619.171000", "103621.171000", "103623.171000", "103625.171000", "103627.171000", "103629.171000", "103631.171000", "103633.171000", "103635.171000", "103637.171000", "103639.171000", "103641.171000", "103643.171000", "103645.171000", "103647.171000", "103649.171000", "103651.171000", "103653.171000", "103655.171000", "103657.171000", "103659.171000", "103701.171000", "103703.171000", "103705.171000", "103707.171000", "103709.171000", "103711.171000", "103713.171000", "103715.171000", "103717.171000", "103719.171000", "103721.171000", "103723.171000", "103725.171000", "103727.171000", "103729.171000", "103731.171000", "103733.171000", "103735.171000", "103737.171000", "103739.171000", "103741.171000", "103743.171000", "103745.171000", "103747.171000", "103749.171000", "103751.171000", "103753.171000", "103755.171000", "103757.171000", "103759.171000", "103801.171000", "103803.171000", "103805.671000", "103807.171000", "103809.171000", "103811.671000", "103813.171000", "103815.171000", "103817.171000", "103819.171000", "103821.171000", "103823.171000", "103825.171000", "103827.171000", "103829.171000", "103831.171000", "103833.171000", "103835.171000", "103837.171000", "103839.171000", "103841.171000", "103843.171000", "103845.171000", "103847.171000", "103849.171000", "103851.171000", "103853.171000", "103855.171000", "103857.171000", "103859.171000", "103901.171000", "103903.171000", "103905.171000", "103907.171000", "103909.171000", "103911.171000", "103913.171000", "103915.171000", "103917.171000", "103919.171000", "103921.171000", "103923.171000", "103925.171000", "103927.171000", "103929.171000", "103931.171000", "103933.171000", "103935.171000", "103937.171000", "103939.171000", "103941.171000", "103943.171000", "103945.171000", "103947.171000", "103949.171000", "103951.171000", "103953.171000", "103955.171000", "103957.171000", "103959.171000", "104001.171000", "104003.671000", "104005.171000", "104007.171000", "104009.171000", "104011.171000", "104013.171000", "104015.171000", "104017.171000", "104019.171000", "104021.171000", "104023.171000", "104025.171000", "104027.171000", "104029.171000", "104031.171000", "104033.171000", "104035.171000", "104037.171000", "104039.171000", "104041.171000", "104043.171000", "104045.171000", "104047.171000", "104049.171000", "104051.171000", "104053.171000", "104055.171000", "104057.171000", "104059.171000", "104101.171000", "104103.171000", "104105.171000", "104107.171000", "104109.171000", "104111.171000", "104113.171000", "104115.171000", "104117.171000", "104119.171000", "104121.171000", "104123.171000", "104125.171000", "104127.171000", "104129.171000", "104131.171000", "104133.671000", "104135.171000", "104137.171000", "104139.171000", "104141.171000", "104143.171000", "104145.171000", "104147.171000", "104149.171000", "104151.171000", "104153.171000", "104155.171000", "104157.171000", "104159.171000", "104201.671000", "104203.171000", "104205.671000", "104207.171000", "104209.171000", "104211.171000", "104213.031000"],
      "InstanceNumber": [1, 2, 3, 4, 5, 6, 7, 8, 9, 10, 11, 12, 13, 14, 15, 16, 17, 18, 19, 20, 21, 22, 23, 24, 25, 26, 27, 28, 29, 30, 31, 32, 33, 34, 35, 36, 37, 38, 39, 40, 41, 42, 43, 44, 45, 46, 47, 48, 49, 50, 51, 52, 53, 54, 55, 56, 57, 58, 59, 60, 61, 62, 63, 64, 65, 66, 67, 68, 69, 70, 71, 72, 73, 74, 75, 76, 77, 78, 79, 80, 81, 82, 83, 84, 85, 86, 87, 88, 89, 90, 91, 92, 93, 94, 95, 96, 97, 98, 99, 100, 101, 102, 103, 104, 105, 106, 107, 108, 109, 110, 111, 112, 113, 114, 115, 116, 117, 118, 119, 120, 121, 122, 123, 124, 125, 126, 127, 128, 129, 130, 131, 132, 133, 134, 135, 136, 137, 138, 139, 140, 141, 142, 143, 144, 145, 146, 147, 148, 149, 150, 151, 152, 153, 154, 155, 156, 157, 158, 159, 160, 161, 162, 163, 164, 165, 166, 167, 168, 169, 170, 171, 172, 173, 174, 175, 176, 177, 178, 179, 180, 181, 182, 183, 184, 185, 186, 187, 188, 189, 190, 191, 192, 193, 194, 195, 196, 197, 198, 199, 200, 201, 202, 203, 204, 205, 206, 207, 208, 209, 210],
      "LargestImagePixelValue": [1892, 1787, 1782, 1779, 1765, 1751, 1759, 1759, 1778, 1773, 1763, 1766, 1757, 1762, 1761, 1752, 1767, 1776, 1774, 1768, 1780, 1770, 1792, 1769, 1776, 1776, 1785, 1780, 1768, 1774, 1773, 1772, 1774, 1769, 1766, 1775, 1766, 1784, 1758, 1775, 1761, 1763, 1767, 1758, 1772, 1768, 1765, 1773, 1783, 1771, 1766, 1781, 1774, 1766, 1770, 1770, 1776, 1773, 1772, 1778, 1755, 1772, 1776, 1754, 1778, 1750, 1761, 1760, 1764, 1767, 1763, 1739, 1763, 1761, 1749, 1770, 1764, 1757, 1756, 1752, 1757, 1777, 1765, 1763, 1757, 1736, 1760, 1751, 1770, 1767, 1762, 1765, 1739, 1768, 1770, 1760, 1767, 1767, 1762, 1762, 1754, 1766, 1757, 1773, 1767, 1761, 1762, 1745, 1760, 1752, 1754, 1751, 1768, 1756, 1748, 1774, 1764, 1747, 1759, 1768, 1741, 1748, 1744, 1765, 1765, 1755, 1745, 1777, 1760, 1780, 1752, 1755, 1765, 1757, 1767, 1773, 1758, 1743, 1775, 1748, 1750, 1749, 1766, 1745, 1744, 1757, 1746, 1760, 1759, 1767, 1746, 1759, 1754, 1762, 1763, 1759, 1762, 1771, 1759, 1751, 1759, 1770, 1757, 1742, 1764, 1763, 1769, 1757, 1748, 1772, 1767, 1755, 1751, 1771, 1770, 1759, 1766, 1756, 1757, 1770, 1762, 1764, 1761, 1756, 1768, 1765, 1770, 1763, 1750, 1754, 1757, 1745, 1759, 1762, 1755, 1744, 1761, 1758, 1748, 1757, 1750, 1765, 1752, 1745, 1743, 1752, 1742, 1744, 1757, 1749],
      "WindowCenter": [730.0, 724.0, 723.0, 724.0, 726.0, 726.0, 725.0, 726.0, 727.0, 728.0, 729.0, 730.0, 730.0, 730.0, 730.0, 729.0, 729.0, 728.0, 728.0, 728.0, 728.0, 728.0, 727.0, 727.0, 727.0, 727.0, 726.0, 726.0, 726.0, 727.0, 727.0, 727.0, 727.0, 727.0, 727.0, 727.0, 728.0, 728.0, 728.0, 728.0, 728.0, 728.0, 727.0, 727.0, 726.0, 726.0, 726.0, 726.0, 726.0, 726.0, 726.0, 728.0, 728.0, 727.0, 727.0, 726.0, 726.0, 727.0, 727.0, 727.0, 727.0, 727.0, 728.0, 727.0, 728.0, 728.0, 728.0, 728.0, 729.0, 729.0, 729.0, 729.0, 729.0, 729.0, 728.0, 728.0, 728.0, 728.0, 729.0, 729.0, 728.0, 727.0, 726.0, 727.0, 728.0, 728.0, 728.0, 727.0, 726.0, 726.0, 726.0, 727.0, 726.0, 726.0, 726.0, 726.0, 726.0, 726.0, 726.0, 725.0, 725.0, 725.0, 726.0, 726.0, 726.0, 727.0, 728.0, 727.0, 726.0, 726.0, 726.0, 726.0, 726.0, 727.0, 726.0, 727.0, 727.0, 726.0, 727.0, 727.0, 729.0, 729.0, 729.0, 728.0, 727.0, 727.0, 727.0, 728.0, 727.0, 727.0, 727.0, 727.0, 727.0, 727.0, 728.0, 728.0, 728.0, 728.0, 728.0, 727.0, 728.0, 728.0, 728.0, 728.0, 728.0, 728.0, 728.0, 728.0, 727.0, 727.0, 727.0, 728.0, 728.0, 728.0, 729.0, 728.0, 727.0, 727.0, 727.0, 727.0, 727.0, 727.0, 727.0, 727.0, 727.0, 728.0, 729.0, 729.0, 728.0, 728.0, 728.0, 727.0, 728.0, 728.0, 728.0, 728.0, 728.0, 728.0, 727.0, 728.0, 728.0, 728.0, 728.0, 728.0, 727.0, 726.0, 726.0, 726.0, 728.0, 729.0, 728.0, 726.0, 726.0, 727.0, 728.0, 729.0, 728.0, 728.0, 727.0, 728.0, 728.0, 729.0, 728.0, 727.0, 727.0, 727.0, 728.0, 728.0, 729.0, 730.0],
      "WindowWidth": [1549.0, 1535.0, 1532.0, 1536.0, 1541.0, 1540.0, 1538.0, 1539.0, 1542.0, 1545.0, 1546.0, 1549.0, 1550.0, 1549.0, 1549.0, 1547.0, 1546.0, 1546.0, 1545.0, 1544.0, 1545.0, 1544.0, 1544.0, 1543.0, 1543.0, 1542.0, 1540.0, 1540.0, 1541.0, 1543.0, 1544.0, 1541.0, 1541.0, 1541.0, 1543.0, 1543.0, 1544.0, 1545.0, 1546.0, 1546.0, 1546.0, 1544.0, 1542.0, 1541.0, 1541.0, 1540.0, 1541.0, 1541.0, 1541.0, 1540.0, 1541.0, 1545.0, 1544.0, 1544.0, 1542.0, 1541.0, 1542.0, 1542.0, 1542.0, 1544.0, 1544.0, 1543.0, 1545.0, 1543.0, 1545.0, 1544.0, 1545.0, 1547.0, 1548.0, 1549.0, 1549.0, 1548.0, 1549.0, 1548.0, 1545.0, 1546.0, 1545.0, 1544.0, 1547.0, 1548.0, 1545.0, 1543.0, 1541.0, 1542.0, 1545.0, 1545.0, 1546.0, 1543.0, 1540.0, 1540.0, 1541.0, 1542.0, 1542.0, 1540.0, 1541.0, 1540.0, 1541.0, 1541.0, 1540.0, 1539.0, 1538.0, 1538.0, 1540.0, 1540.0, 1540.0, 1542.0, 1545.0, 1544.0, 1541.0, 1541.0, 1542.0, 1541.0, 1541.0, 1542.0, 1542.0, 1543.0, 1542.0, 1542.0, 1543.0, 1544.0, 1547.0, 1548.0, 1547.0, 1545.0, 1544.0, 1543.0, 1543.0, 1545.0, 1543.0, 1544.0, 1543.0, 1543.0, 1543.0, 1544.0, 1545.0, 1546.0, 1547.0, 1545.0, 1545.0, 1544.0, 1545.0, 1546.0, 1546.0, 1546.0, 1545.0, 1545.0, 1545.0, 1545.0, 1543.0, 1544.0, 1543.0, 1545.0, 1545.0, 1546.0, 1548.0, 1546.0, 1544.0, 1544.0, 1543.0, 1542.0, 1542.0, 1544.0, 1544.0, 1543.0, 1544.0, 1545.0, 1547.0, 1548.0, 1545.0, 1546.0, 1545.0, 1544.0, 1545.0, 1545.0, 1546.0, 1546.0, 1545.0, 1545.0, 1544.0, 1545.0, 1545.0, 1546.0, 1547.0, 1544.0, 1543.0, 1542.0, 1541.0, 1541.0, 1545.0, 1548.0, 1544.0, 1541.0, 1541.0, 1543.0, 1547.0, 1548.0, 1546.0, 1544.0, 1544.0, 1545.0, 1547.0, 1549.0, 1547.0, 1542.0, 1542.0, 1544.0, 1545.0, 1546.0, 1548.0, 1551.0]
    },
    "slices": {}
  }
}