{
  "AcquisitionMatrixPE": 64,
  "AcquisitionNumber": 1,
  "AcquisitionTime": "15:44:21.072500",
  "BaseResolution": 64,
  "BidsGuess": [
    "fmap",
    "_acq-fm2_phasediff"
  ],
  "CoilCombinationMethod": "Adaptive Combine",
  "CoilString": "C:HEA;HEP",
  "ConversionSoftware": "dcm2niix",
  "ConversionSoftwareVersion": "v1.0.20240202",
  "DeviceSerialNumber": "35119",
  "DwellTime": 0.00003,
  "EchoNumber": 2,
  "EchoTime": 0.00765,
  "EchoTime1": 0.00519,
  "EchoTime2": 0.00765,
  "FlipAngle": 60,
  "HeudiconvVersion": "1.1.6",
  "ImageComments": "V",
  "ImageOrientationPatientDICOM": [
    0.999615,
    0.009818,
    0.025954,
    0,
    0.93532,
    -0.353803
  ],
  "ImageOrientationText": "Tra>Cor(-20.7)>Sag(1.6)",
  "ImageType": [
    "ORIGINAL",
    "PRIMARY",
    "P",
    "ND",
    "PHASE"
  ],
  "ImagingFrequency": 123.251833,
  "InPlanePhaseEncodingDirectionDICOM": "COL",
  "InstitutionAddress": "Chaucer Road  15,Cambridge,UK,GB,CB2 2EF",
  "InstitutionName": "MRC-CBU",
  "IntendedFor": [
    "ses-mri/func/sub-10_ses-mri_task-facerecognition_run-01_bold.nii.gz",
    "ses-mri/func/sub-10_ses-mri_task-facerecognition_run-02_bold.nii.gz",
    "ses-mri/func/sub-10_ses-mri_task-facerecognition_run-03_bold.nii.gz",
    "ses-mri/func/sub-10_ses-mri_task-facerecognition_run-04_bold.nii.gz",
    "ses-mri/func/sub-10_ses-mri_task-facerecognition_run-05_bold.nii.gz",
    "ses-mri/func/sub-10_ses-mri_task-facerecognition_run-06_bold.nii.gz",
    "ses-mri/func/sub-10_ses-mri_task-facerecognition_run-07_bold.nii.gz",
    "ses-mri/func/sub-10_ses-mri_task-facerecognition_run-08_bold.nii.gz",
    "ses-mri/func/sub-10_ses-mri_task-facerecognition_run-09_bold.nii.gz"
  ],
  "MRAcquisitionType": "2D",
  "MagneticFieldStrength": 3,
  "Manufacturer": "Siemens",
  "ManufacturersModelName": "TrioTim",
  "MatrixCoilMode": "SENSE",
  "Modality": "MR",
  "MultibandAccelerationFactor": 2,
  "NonlinearGradientCorrection": false,
  "PartialFourier": 1,
  "PatientPosition": "HFS",
  "PercentPhaseFOV": 100,
  "PercentSampling": 100,
  "PhaseEncodingDirection": "j-",
  "PhaseEncodingSteps": 64,
  "PhaseResolution": 1,
  "PixelBandwidth": 260,
  "ProcedureStepDescription": "CBU^Neuroimaging",
  "ProtocolName": "CBU_FieldMapping",
  "PulseSequenceDetails": "%SiemensSeq%\\gre_field_mapping",
  "ReceiveCoilName": "HeadMatrix",
  "ReconMatrixPE": 64,
  "RepetitionTime": 0.4,
  "SAR": 0.228477,
  "ScanningSequence": "GR",
  "SequenceName": "*fm2d2r",
  "SequenceVariant": "SP",
  "SeriesDescription": "CBU_FieldMapping",
  "SeriesNumber": 20,
  "ShimSetting": [
    -7808,
    -8761,
    -2044,
    683,
    228,
    310,
    -235,
    -53
  ],
  "SliceThickness": 3,
  "SliceTiming": [
    0,
    0.20312,
    0,
    0.21875,
    0.01562,
    0.21875,
    0.03125,
    0.23438,
    0.04688,
    0.25,
    0.04688,
    0.26562,
    0.0625,
    0.28125,
    0.07812,
    0.28125,
    0.09375,
    0.29688,
    0.10938,
    0.3125,
    0.10938,
    0.32812,
    0.125,
    0.32812,
    0.14062,
    0.34375,
    0.15625,
    0.35938,
    0.17188,
    0.375,
    0.17188,
    0.375,
    0.1875
  ],
  "SoftwareVersions": "syngo MR B15",
  "SpacingBetweenSlices": 3.9,
  "StationName": "MRC35119",
  "TxRefAmp": 308.516,
  "dcmmeta_affine": [
    [
      -2.998845100402832,
      0.0,
      0.10822100192308426,
      98.60255432128906
    ],
    [
      -0.029454000294208527,
      2.805959939956665,
      -1.3793020248413086,
      -57.231849670410156
    ],
    [
      0.07786200195550919,
      1.0614089965820312,
      3.6463398933410645,
      -71.41050720214844
    ],
    [
      0.0,
      0.0,
      0.0,
      1.0
    ]
  ],
  "dcmmeta_reorient_transform": [
    [
      0.0,
      -1.0,
      0.0,
      63.0
    ],
    [
      1.0,
      0.0,
      0.0,
      0.0
    ],
    [
      0.0,
      0.0,
      -1.0,
      32.0
    ],
    [
      0.0,
      0.0,
      0.0,
      1.0
    ]
  ],
  "dcmmeta_shape": [
    64,
    64,
    33
  ],
  "dcmmeta_slice_dim": 2,
  "dcmmeta_version": 0.6,
  "global": {
    "const": {
      "AcquisitionMatrix": [
        64,
        0,
        0,
        64
      ],
      "AcquisitionNumber": 1,
      "AngioFlag": "N",
      "BitsAllocated": 16,
      "BitsStored": 12,
      "Columns": 64,
      "EchoNumbers": 2,
      "EchoTime": 7.65,
      "EchoTrainLength": 1,
      "FlipAngle": 60.0,
      "HighBit": 11,
      "ImageOrientationPatient": [
        0.999615,
        0.009818,
        0.025954,
        0.0,
        0.93532,
        -0.353803
      ],
      "ImageType": [
        "ORIGINAL",
        "PRIMARY",
        "P",
        "ND"
      ],
      "ImagedNucleus": "1H",
      "ImagingFrequency": 123.251833,
      "InPlanePhaseEncodingDirection": "COL",
      "MRAcquisitionType": "2D",
      "MagneticFieldStrength": 3.0,
      "Manufacturer": "SIEMENS",
      "ManufacturerModelName": "TrioTim",
      "Modality": "MR",
      "NumberOfAverages": 1.0,
      "NumberOfPhaseEncodingSteps": 64,
      "PercentPhaseFieldOfView": 100.0,
      "PercentSampling": 100.0,
      "PerformedProcedureStepStartTime": "135928.531000",
      "PhotometricInterpretation": "MONOCHROME2",
      "PixelAspectRatio": [
        1,
        1
      ],
      "PixelBandwidth": 260.0,
      "PixelRepresentation": 0,
      "PixelSpacing": [
        3.0,
        3.0
      ],
      "ProtocolName": "CBU_FieldMapping",
      "RepetitionTime": 400.0,
      "RescaleIntercept": -4096.0,
      "RescaleSlope": 2.0,
      "RescaleType": "US",
      "Rows": 64,
      "SAR": 0.228477,
      "SamplesPerPixel": 1,
      "ScanningSequence": "GR",
      "SequenceName": "*fm2d2r",
      "SequenceVariant": "SP",
      "SeriesDescription": "CBU_FieldMapping",
      "SeriesNumber": 20,
      "SeriesTime": "154614.796000",
      "SliceThickness": 3.0,
      "SoftwareVersions": "syngo MR B15",
      "SpacingBetweenSlices": 3.9,
      "SpecificCharacterSet": "ISO_IR 100",
      "StudyID": "1",
      "StudyTime": "135928.468000",
      "TransmitCoilName": "Body",
      "VariableFlipAngleFlag": "N",
      "WindowCenterWidthExplanation": "Algo1",
      "dBdt": 0.0
    },
    "slices": {
      "AcquisitionTime": [
        "154421.072500",
        "154421.277500",
        "154421.082500",
        "154421.290000",
        "154421.095000",
        "154421.302500",
        "154421.107500",
        "154421.315000",
        "154421.120000",
        "154421.327500",
        "154421.132500",
        "154421.340000",
        "154421.145000",
        "154421.352500",
        "154421.157500",
        "154421.362500",
        "154421.170000",
        "154421.375000",
        "154421.180000",
        "154421.387500",
        "154421.192500",
        "154421.400000",
        "154421.205000",
        "154421.412500",
        "154421.217500",
        "154421.425000",
        "154421.230000",
        "154421.437500",
        "154421.242500",
        "154421.450000",
        "154421.255000",
        "154421.460000",
        "154421.267500"
      ],
      "ContentTime": [
        "154614.796000",
        "154615.859000",
        "154614.796000",
        "154615.875000",
        "154614.828000",
        "154615.875000",
        "154614.843000",
        "154615.875000",
        "154614.843000",
        "154615.875000",
        "154615.812000",
        "154615.890000",
        "154615.828000",
        "154615.890000",
        "154615.828000",
        "154615.890000",
        "154615.828000",
        "154615.906000",
        "154615.828000",
        "154615.906000",
        "154615.843000",
        "154615.921000",
        "154615.843000",
        "154616.078000",
        "154615.843000",
        "154616.093000",
        "154615.843000",
        "154616.109000",
        "154615.859000",
        "154616.125000",
        "154615.859000",
        "154616.187000",
        "154615.859000"
      ],
      "CsaImage.ICE_Dims": [
        "X_2_1_1_1_1_1_1_1_1_1_1_70",
        "X_2_1_1_1_1_1_18_1_1_2_1_70",
        "X_2_1_1_1_1_1_2_1_1_3_1_70",
        "X_2_1_1_1_1_1_19_1_1_4_1_70",
        "X_2_1_1_1_1_1_3_1_1_5_1_70",
        "X_2_1_1_1_1_1_20_1_1_6_1_70",
        "X_2_1_1_1_1_1_4_1_1_7_1_70",
        "X_2_1_1_1_1_1_21_1_1_8_1_70",
        "X_2_1_1_1_1_1_5_1_1_9_1_70",
        "X_2_1_1_1_1_1_22_1_1_10_1_70",
        "X_2_1_1_1_1_1_6_1_1_11_1_70",
        "X_2_1_1_1_1_1_23_1_1_12_1_70",
        "X_2_1_1_1_1_1_7_1_1_13_1_70",
        "X_2_1_1_1_1_1_24_1_1_14_1_70",
        "X_2_1_1_1_1_1_8_1_1_15_1_70",
        "X_2_1_1_1_1_1_25_1_1_16_1_70",
        "X_2_1_1_1_1_1_9_1_1_17_1_70",
        "X_2_1_1_1_1_1_26_1_1_18_1_70",
        "X_2_1_1_1_1_1_10_1_1_19_1_70",
        "X_2_1_1_1_1_1_27_1_1_20_1_70",
        "X_2_1_1_1_1_1_11_1_1_21_1_70",
        "X_2_1_1_1_1_1_28_1_1_22_1_70",
        "X_2_1_1_1_1_1_12_1_1_23_1_70",
        "X_2_1_1_1_1_1_29_1_1_24_1_70",
        "X_2_1_1_1_1_1_13_1_1_25_1_70",
        "X_2_1_1_1_1_1_30_1_1_26_1_70",
        "X_2_1_1_1_1_1_14_1_1_27_1_70",
        "X_2_1_1_1_1_1_31_1_1_28_1_70",
        "X_2_1_1_1_1_1_15_1_1_29_1_70",
        "X_2_1_1_1_1_1_32_1_1_30_1_70",
        "X_2_1_1_1_1_1_16_1_1_31_1_70",
        "X_2_1_1_1_1_1_33_1_1_32_1_70",
        "X_2_1_1_1_1_1_17_1_1_33_1_70"
      ],
      "CsaImage.ProtocolSliceNumber": [
        0,
        1,
        2,
        3,
        4,
        5,
        6,
        7,
        8,
        9,
        10,
        11,
        12,
        13,
        14,
        15,
        16,
        17,
        18,
        19,
        20,
        21,
        22,
        23,
        24,
        25,
        26,
        27,
        28,
        29,
        30,
        31,
        32
      ],
      "CsaImage.SliceMeasurementDuration": [
        50602.5,
        50602.5,
        50602.5,
        50602.5,
        50602.5,
        50602.5,
        50602.5,
        50602.5,
        50602.5,
        50602.5,
        50602.5,
        50602.5,
        50602.5,
        50602.5,
        50602.5,
        50602.5,
        50602.5,
        50602.5,
        50602.5,
        50602.5,
        50602.5,
        50602.5,
        50602.5,
        50602.5,
        50602.5,
        50602.5,
        50602.5,
        50602.5,
        50602.5,
        50600.0,
        50602.5,
        50602.5,
        50600.0
      ],
      "CsaImage.SlicePosition_PCS": [
        [
          -98.60255525,
          -119.54361837,
          -4.54183123
        ],
        [
          -98.7107763,
          -118.1643173,
          -0.895488
        ],
        [
          -98.81899736,
          -116.78501623,
          2.75085524
        ],
        [
          -98.92721817,
          -115.40571515,
          6.39719847
        ],
        [
          -99.03543923,
          -114.02641218,
          10.04353979
        ],
        [
          -99.14366028,
          -112.6471111,
          13.68988302
        ],
        [
          -99.2518811,
          -111.26781003,
          17.33622625
        ],
        [
          -99.36010215,
          -109.88850706,
          20.98256853
        ],
        [
          -99.46832321,
          -108.50920598,
          24.62891128
        ],
        [
          -99.57654402,
          -107.12990491,
          28.27525404
        ],
        [
          -99.68476508,
          -105.75060289,
          31.92159679
        ],
        [
          -99.79298613,
          -104.37130086,
          35.56793955
        ],
        [
          -99.90120695,
          -102.99199979,
          39.2142823
        ],
        [
          -100.009428,
          -101.61269777,
          42.86062506
        ],
        [
          -100.11764905,
          -100.2333967,
          46.50696733
        ],
        [
          -100.22587011,
          -98.85409467,
          50.15330961
        ],
        [
          -100.33409116,
          -97.47479312,
          53.79965284
        ],
        [
          -100.44231174,
          -96.09549158,
          57.44599607
        ],
        [
          -100.55053279,
          -94.71618979,
          61.09233931
        ],
        [
          -100.65875385,
          -93.33688824,
          64.73868254
        ],
        [
          -100.7669749,
          -91.95758669,
          68.38502577
        ],
        [
          -100.87519596,
          -90.57828503,
          72.03136518
        ],
        [
          -100.98341701,
          -89.19898336,
          75.67770842
        ],
        [
          -101.09163759,
          -87.81968181,
          79.32405165
        ],
        [
          -101.19985864,
          -86.44038026,
          82.97039488
        ],
        [
          -101.30807969,
          -85.06107871,
          86.61673811
        ],
        [
          -101.41630075,
          -83.68177669,
          90.26308134
        ],
        [
          -101.5245218,
          -82.30247514,
          93.90942457
        ],
        [
          -101.63274286,
          -80.92317407,
          97.55576399
        ],
        [
          -101.74096343,
          -79.54387205,
          101.20211103
        ],
        [
          -101.84918449,
          -78.16457002,
          104.84845045
        ],
        [
          -101.95740554,
          -76.78526895,
          108.4947975
        ],
        [
          -102.0656266,
          -75.40596692,
          112.14113691
        ]
      ],
      "CsaImage.TimeAfterStart": [
        0.405,
        0.61,
        0.4175,
        0.6225,
        0.4275,
        0.635,
        0.44,
        0.6475,
        0.4525,
        0.66,
        0.465,
        0.6725,
        0.4775,
        0.685,
        0.49,
        0.6975,
        0.5025,
        0.7075,
        0.515,
        0.72,
        0.525,
        0.7325,
        0.5375,
        0.745,
        0.55,
        0.7575,
        0.5625,
        0.77,
        0.575,
        0.7825,
        0.5875,
        0.795,
        0.6
      ],
      "ImagePositionPatient": [
        [
          -98.602555,
          -119.543618,
          -4.541831
        ],
        [
          -98.710776,
          -118.164317,
          -0.895488
        ],
        [
          -98.818997,
          -116.785016,
          2.750855
        ],
        [
          -98.927218,
          -115.405715,
          6.397198
        ],
        [
          -99.035439,
          -114.026412,
          10.04354
        ],
        [
          -99.14366,
          -112.647111,
          13.689883
        ],
        [
          -99.251881,
          -111.26781,
          17.336226
        ],
        [
          -99.360102,
          -109.888507,
          20.982569
        ],
        [
          -99.468323,
          -108.509206,
          24.628911
        ],
        [
          -99.576544,
          -107.129905,
          28.275254
        ],
        [
          -99.684765,
          -105.750603,
          31.921597
        ],
        [
          -99.792986,
          -104.371301,
          35.56794
        ],
        [
          -99.901207,
          -102.992,
          39.214282
        ],
        [
          -100.009428,
          -101.612698,
          42.860625
        ],
        [
          -100.117649,
          -100.233397,
          46.506967
        ],
        [
          -100.22587,
          -98.854095,
          50.15331
        ],
        [
          -100.334091,
          -97.474793,
          53.799653
        ],
        [
          -100.442312,
          -96.095492,
          57.445996
        ],
        [
          -100.550533,
          -94.71619,
          61.092339
        ],
        [
          -100.658754,
          -93.336888,
          64.738683
        ],
        [
          -100.766975,
          -91.957587,
          68.385026
        ],
        [
          -100.875196,
          -90.578285,
          72.031365
        ],
        [
          -100.983417,
          -89.198983,
          75.677708
        ],
        [
          -101.091638,
          -87.819682,
          79.324052
        ],
        [
          -101.199859,
          -86.44038,
          82.970395
        ],
        [
          -101.30808,
          -85.061079,
          86.616738
        ],
        [
          -101.416301,
          -83.681777,
          90.263081
        ],
        [
          -101.524522,
          -82.302475,
          93.909425
        ],
        [
          -101.632743,
          -80.923174,
          97.555764
        ],
        [
          -101.740963,
          -79.543872,
          101.202111
        ],
        [
          -101.849184,
          -78.16457,
          104.84845
        ],
        [
          -101.957406,
          -76.785269,
          108.494797
        ],
        [
          -102.065627,
          -75.405967,
          112.141137
        ]
      ],
      "InstanceCreationTime": [
        "154614.796000",
        "154615.859000",
        "154614.796000",
        "154615.875000",
        "154614.828000",
        "154615.875000",
        "154614.843000",
        "154615.875000",
        "154614.843000",
        "154615.875000",
        "154615.812000",
        "154615.890000",
        "154615.828000",
        "154615.890000",
        "154615.828000",
        "154615.890000",
        "154615.828000",
        "154615.906000",
        "154615.828000",
        "154615.906000",
        "154615.843000",
        "154615.921000",
        "154615.843000",
        "154616.078000",
        "154615.843000",
        "154616.093000",
        "154615.843000",
        "154616.109000",
        "154615.859000",
        "154616.125000",
        "154615.859000",
        "154616.187000",
        "154615.859000"
      ],
      "InstanceNumber": [
        1,
        2,
        3,
        4,
        5,
        6,
        7,
        8,
        9,
        10,
        11,
        12,
        13,
        14,
        15,
        16,
        17,
        18,
        19,
        20,
        21,
        22,
        23,
        24,
        25,
        26,
        27,
        28,
        29,
        30,
        31,
        32,
        33
      ],
      "LargestImagePixelValue": [
        4092,
        4086,
        4094,
        4093,
        4087,
        4085,
        4094,
        4089,
        4090,
        4090,
        4045,
        4091,
        4086,
        4089,
        4094,
        4089,
        4090,
        4072,
        4092,
        4094,
        4073,
        4090,
        4094,
        4094,
        4077,
        4087,
        4091,
        4091,
        4091,
        4094,
        4091,
        4090,
        4094
      ],
      "SliceLocation": [
        -43.788955,
        -39.888954,
        -35.988954,
        -32.088954,
        -28.188955,
        -24.288954,
        -20.388954,
        -16.488954,
        -12.588954,
        -8.688954,
        -4.788954,
        -0.888954,
        3.011046,
        6.911046,
        10.811045,
        14.711045,
        18.611046,
        22.511046,
        26.411046,
        30.311047,
        34.211047,
        38.111044,
        42.011045,
        45.911045,
        49.811046,
        53.711046,
        57.611047,
        61.511047,
        65.411044,
        69.311048,
        73.211045,
        77.111049,
        81.011046
      ],
      "SmallestImagePixelValue": [
        2,
        0,
        11,
        4,
        18,
        2,
        2,
        6,
        7,
        10,
        16,
        2,
        17,
        23,
        5,
        12,
        1,
        24,
        3,
        3,
        0,
        8,
        4,
        5,
        7,
        1,
        0,
        0,
        0,
        2,
        1,
        0,
        0
      ],
      "WindowCenter": [
        -232.0,
        -238.0,
        -266.0,
        -254.0,
        -236.0,
        -220.0,
        -220.0,
        -184.0,
        -248.0,
        -170.0,
        -272.0,
        -264.0,
        -250.0,
        -102.0,
        -220.0,
        -76.0,
        -168.0,
        -10.0,
        -18.0,
        -146.0,
        -54.0,
        -190.0,
        -220.0,
        -260.0,
        -110.0,
        -150.0,
        -204.0,
        -186.0,
        -152.0,
        -142.0,
        -206.0,
        -244.0,
        -282.0
      ],
      "WindowWidth": [
        6330.0,
        6160.0,
        6098.0,
        5984.0,
        5906.0,
        5826.0,
        5694.0,
        5504.0,
        5190.0,
        5318.0,
        4602.0,
        4602.0,
        4594.0,
        5162.0,
        4578.0,
        5056.0,
        4546.0,
        5170.0,
        5084.0,
        4538.0,
        4936.0,
        4596.0,
        4610.0,
        4642.0,
        5372.0,
        5356.0,
        5296.0,
        5468.0,
        5790.0,
        5826.0,
        5976.0,
        5816.0,
        5754.0
      ]
    }
  }
}
