{
  "AcquisitionMatrixPE": 64,
  "AcquisitionNumber": 1,
  "AcquisitionTime": "10:27:14.057500",
  "BandwidthPerPixelPhaseEncode": 30.637,
  "BaseResolution": 64,
  "BidsGuess": [
    "func",
    "_acq-epfid2_dir-AP_run-4_bold"
],
  "CoilCombinationMethod": "Sum of Squares",
  "CoilString": "C:HEA;HEP",
  "ConversionSoftware": "dcm2niix",
  "ConversionSoftwareVersion": "v1.0.20240202",
  "DerivedVendorReportedEchoSpacing": 0.000510004,
  "DeviceSerialNumber": "35119",
  "DwellTime": 3.5e-06,
  "EchoTime": 0.03,
  "EffectiveEchoSpacing": 0.000510004,
  "FlipAngle": 78,
  "HeudiconvVersion": "1.1.6",
  "ImageComments": "V",
  "ImageOrientationPatientDICOM": [0.999852, -0.007648, -0.0154, 0, 0.895641, -0.444778],
  "ImageOrientationText": "Tra>Cor(-26.4)>Sag(-1.0)",
  "ImageType": [
    "ORIGINAL",
    "PRIMARY",
    "M",
    "ND",
    "MOSAIC"
],
  "ImagingFrequency": 123.251782,
  "InPlanePhaseEncodingDirectionDICOM": "COL",
  "InstitutionAddress": "Chaucer Road  15,Cambridge,UK,GB,CB2 2EF",
  "InstitutionName": "MRC-CBU",
  "MRAcquisitionType": "2D",
  "MagneticFieldStrength": 3,
  "Manufacturer": "Siemens",
  "ManufacturersModelName": "TrioTim",
  "MatrixCoilMode": "SENSE",
  "Modality": "MR",
  "NonlinearGradientCorrection": false,
  "PartialFourier": 1,
  "PatientPosition": "HFS",
  "PercentPhaseFOV": 100,
  "PercentSampling": 100,
  "PhaseEncodingDirection": "j-",
  "PhaseEncodingSteps": 64,
  "PhaseResolution": 1,
  "PixelBandwidth": 2230,
  "ProcedureStepDescription": "CBU^Neuroimaging",
  "ProtocolName": "CBU_DWEPI_BOLD210",
  "PulseSequenceDetails": "%SiemensSeq%\\ep2d_bold",
  "ReceiveCoilName": "HeadMatrix",
  "ReconMatrixPE": 64,
  "RepetitionTime": 2,
  "SAR": 0.133899,
  "ScanOptions": "FS",
  "ScanningSequence": "EP",
  "SequenceName": "*epfid2d1_64",
  "SequenceVariant": "SK",
  "SeriesDescription": "CBU_DWEPI_BOLD210",
  "SeriesNumber": 4,
  "ShimSetting": [-7835, -8808, -2091, 857, 221, -152, -163, 88],
  "SliceThickness": 3,
  "SliceTiming": [0, 1.035, 0.0625, 1.095, 0.1225, 1.1575, 0.1825, 1.2175, 0.245, 1.2775, 0.305, 1.34, 0.365, 1.4, 0.4275, 1.46, 0.4875, 1.5225, 0.5475, 1.5825, 0.61, 1.6425, 0.67, 1.705, 0.73, 1.765, 0.7925, 1.825, 0.8525, 1.8875, 0.9125, 1.9475, 0.975],
  "SoftwareVersions": "syngo MR B15",
  "SpacingBetweenSlices": 3.75,
  "StationName": "MRC35119",
  "TaskName": "faceprocessing",
  "TotalReadoutTime": 0.0321303,
  "TxRefAmp": 327.749,
  "dcmmeta_affine": [
    [-2.999556064605713, 0.0, -0.06447950005531311, 92.73761749267578],
    [0.022943999618291855, 2.686923027038574, -1.6676706075668335, -52.4483528137207],
    [-0.04619999974966049, 1.3343340158462524, 3.358156681060791, -99.290283203125],
    [0.0, 0.0, 0.0, 1.0]
],
  "dcmmeta_reorient_transform": [
    [0.0, -1.0, 0.0, 63.0],
    [1.0, 0.0, 0.0, 0.0],
    [0.0, 0.0, 1.0, 0.0],
    [0.0, 0.0, 0.0, 1.0]
],
  "dcmmeta_shape": [64, 64, 33, 210],
  "dcmmeta_slice_dim": 2,
  "dcmmeta_version": 0.6,
  "global": {
    "const": {
      "AcquisitionMatrix": [64, 0, 0, 64],
      "AngioFlag": "N",
      "BitsAllocated": 16,
      "BitsStored": 12,
      "Columns": 384,
      "EchoNumbers": 1,
      "EchoTime": 30.0,
      "EchoTrainLength": 1,
      "FlipAngle": 78.0,
      "HighBit": 11,
      "ImageOrientationPatient": [0.999852, -0.007648, -0.0154, -0.0, 0.895641, -0.444778],
      "ImagePositionPatient": [-572.666574, -543.064435, 205.658198],
      "ImageType": [
        "ORIGINAL",
        "PRIMARY",
        "M",
        "ND",
        "MOSAIC"
],
      "ImagedNucleus": "1H",
      "ImagingFrequency": 123.251782,
      "InPlanePhaseEncodingDirection": "COL",
      "MRAcquisitionType": "2D",
      "MagneticFieldStrength": 3.0,
      "Manufacturer": "SIEMENS",
      "ManufacturerModelName": "TrioTim",
      "Modality": "MR",
      "NumberOfAverages": 1.0,
      "NumberOfPhaseEncodingSteps": 64,
      "PercentPhaseFieldOfView": 100.0,
      "PercentSampling": 100.0,
      "PerformedProcedureStepStartTime": "095652.046000",
      "PhotometricInterpretation": "MONOCHROME2",
      "PixelAspectRatio": [1, 1],
      "PixelBandwidth": 2230.0,
      "PixelRepresentation": 0,
      "PixelSpacing": [3.0, 3.0],
      "ProtocolName": "CBU_DWEPI_BOLD210",
      "RepetitionTime": 2000.0,
      "Rows": 384,
      "SAR": 0.133899,
      "SamplesPerPixel": 1,
      "ScanOptions": "FS",
      "ScanningSequence": "EP",
      "SequenceName": "*epfid2d1_64",
      "SequenceVariant": "SK",
      "SeriesDescription": "CBU_DWEPI_BOLD210",
      "SeriesNumber": 4,
      "SeriesTime": "102717.484000",
      "SliceLocation": -67.185516,
      "SliceThickness": 3.0,
      "SmallestImagePixelValue": 0,
      "SoftwareVersions": "syngo MR B15",
      "SpacingBetweenSlices": 3.75,
      "SpecificCharacterSet": "ISO_IR 100",
      "StudyID": "1",
      "StudyTime": "095651.859000",
      "TransmitCoilName": "Body",
      "VariableFlipAngleFlag": "N",
      "WindowCenterWidthExplanation": "Algo1",
      "dBdt": 0.0},
    "slices": {}
  },
  "time": {
    "samples": {
      "AcquisitionNumber": [1, 2, 3, 4, 5, 6, 7, 8, 9, 10, 11, 12, 13, 14, 15, 16, 17, 18, 19, 20, 21, 22, 23, 24, 25, 26, 27, 28, 29, 30, 31, 32, 33, 34, 35, 36, 37, 38, 39, 40, 41, 42, 43, 44, 45, 46, 47, 48, 49, 50, 51, 52, 53, 54, 55, 56, 57, 58, 59, 60, 61, 62, 63, 64, 65, 66, 67, 68, 69, 70, 71, 72, 73, 74, 75, 76, 77, 78, 79, 80, 81, 82, 83, 84, 85, 86, 87, 88, 89, 90, 91, 92, 93, 94, 95, 96, 97, 98, 99, 100, 101, 102, 103, 104, 105, 106, 107, 108, 109, 110, 111, 112, 113, 114, 115, 116, 117, 118, 119, 120, 121, 122, 123, 124, 125, 126, 127, 128, 129, 130, 131, 132, 133, 134, 135, 136, 137, 138, 139, 140, 141, 142, 143, 144, 145, 146, 147, 148, 149, 150, 151, 152, 153, 154, 155, 156, 157, 158, 159, 160, 161, 162, 163, 164, 165, 166, 167, 168, 169, 170, 171, 172, 173, 174, 175, 176, 177, 178, 179, 180, 181, 182, 183, 184, 185, 186, 187, 188, 189, 190, 191, 192, 193, 194, 195, 196, 197, 198, 199, 200, 201, 202, 203, 204, 205, 206, 207, 208, 209, 210],
      "AcquisitionTime": ["102714.057500", "102716.065000", "102718.075000", "102720.082500", "102722.090000", "102724.097500", "102726.107500", "102728.115000", "102730.122500", "102732.130000", "102734.137500", "102736.147500", "102738.155000", "102740.162500", "102742.170000", "102744.177500", "102746.187500", "102748.195000", "102750.202500", "102752.210000", "102754.220000", "102756.227500", "102758.235000", "102800.242500", "102802.250000", "102804.260000", "102806.267500", "102808.275000", "102810.282500", "102812.290000", "102814.300000", "102816.307500", "102818.315000", "102820.322500", "102822.332500", "102824.340000", "102826.347500", "102828.355000", "102830.362500", "102832.372500", "102834.380000", "102836.387500", "102838.395000", "102840.402500", "102842.412500", "102844.420000", "102846.427500", "102848.435000", "102850.442500", "102852.452500", "102854.460000", "102856.467500", "102858.475000", "102900.485000", "102902.492500", "102904.500000", "102906.507500", "102908.515000", "102910.525000", "102912.532500", "102914.540000", "102916.547500", "102918.555000", "102920.565000", "102922.572500", "102924.580000", "102926.587500", "102928.597500", "102930.605000", "102932.612500", "102934.620000", "102936.627500", "102938.637500", "102940.645000", "102942.652500", "102944.660000", "102946.667500", "102948.677500", "102950.685000", "102952.692500", "102954.700000", "102956.710000", "102958.717500", "103000.725000", "103002.732500", "103004.740000", "103006.750000", "103008.757500", "103010.765000", "103012.772500", "103014.780000", "103016.790000", "103018.797500", "103020.805000", "103022.812500", "103024.820000", "103026.830000", "103028.837500", "103030.845000", "103032.852500", "103034.862500", "103036.870000", "103038.877500", "103040.885000", "103042.892500", "103044.902500", "103046.910000", "103048.917500", "103050.925000", "103052.932500", "103054.942500", "103056.950000", "103058.957500", "103100.965000", "103102.975000", "103104.982500", "103106.990000", "103108.997500", "103111.005000", "103113.015000", "103115.022500", "103117.030000", "103119.037500", "103121.045000", "103123.055000", "103125.062500", "103127.070000", "103129.077500", "103131.087500", "103133.095000", "103135.102500", "103137.110000", "103139.117500", "103141.127500", "103143.135000", "103145.142500", "103147.150000", "103149.157500", "103151.167500", "103153.175000", "103155.182500", "103157.190000", "103159.197500", "103201.207500", "103203.215000", "103205.222500", "103207.230000", "103209.240000", "103211.247500", "103213.255000", "103215.262500", "103217.270000", "103219.280000", "103221.287500", "103223.295000", "103225.302500", "103227.310000", "103229.320000", "103231.327500", "103233.335000", "103235.342500", "103237.352500", "103239.360000", "103241.367500", "103243.375000", "103245.382500", "103247.392500", "103249.400000", "103251.407500", "103253.415000", "103255.422500", "103257.432500", "103259.440000", "103301.447500", "103303.455000", "103305.465000", "103307.472500", "103309.480000", "103311.487500", "103313.495000", "103315.505000", "103317.512500", "103319.520000", "103321.527500", "103323.535000", "103325.545000", "103327.552500", "103329.560000", "103331.567500", "103333.577500", "103335.585000", "103337.592500", "103339.600000", "103341.607500", "103343.617500", "103345.625000", "103347.632500", "103349.640000", "103351.647500", "103353.657500", "103355.665000", "103357.672500", "103359.680000", "103401.687500", "103403.697500", "103405.705000", "103407.712500", "103409.720000", "103411.730000", "103413.737500"],
      "ContentTime": ["102717.500000", "102719.484000", "102721.484000", "102723.484000", "102725.484000", "102727.484000", "102729.484000", "102731.484000", "102733.484000", "102735.484000", "102737.484000", "102739.484000", "102741.484000", "102743.484000", "102745.484000", "102747.484000", "102749.484000", "102751.484000", "102753.484000", "102755.484000", "102757.484000", "102759.484000", "102801.484000", "102803.484000", "102805.484000", "102807.484000", "102809.484000", "102811.484000", "102813.484000", "102815.484000", "102817.484000", "102819.484000", "102821.484000", "102823.484000", "102825.484000", "102827.484000", "102829.484000", "102831.484000", "102833.484000", "102835.484000", "102837.484000", "102839.484000", "102841.484000", "102843.484000", "102845.484000", "102847.484000", "102849.484000", "102851.484000", "102853.484000", "102855.484000", "102857.484000", "102859.484000", "102901.484000", "102903.484000", "102905.484000", "102907.484000", "102909.484000", "102911.484000", "102913.484000", "102915.484000", "102917.484000", "102919.484000", "102921.484000", "102923.484000", "102925.484000", "102927.484000", "102929.984000", "102931.484000", "102933.484000", "102935.984000", "102937.484000", "102939.484000", "102941.484000", "102943.484000", "102945.484000", "102947.484000", "102949.484000", "102951.484000", "102953.484000", "102955.484000", "102957.484000", "102959.484000", "103001.484000", "103003.484000", "103005.484000", "103007.484000", "103009.484000", "103011.484000", "103013.484000", "103015.484000", "103017.484000", "103019.484000", "103021.484000", "103023.484000", "103025.484000", "103027.484000", "103029.484000", "103031.484000", "103033.484000", "103035.484000", "103037.484000", "103039.484000", "103041.484000", "103043.484000", "103045.484000", "103047.484000", "103049.484000", "103051.984000", "103053.484000", "103055.484000", "103057.484000", "103059.484000", "103101.484000", "103103.484000", "103105.484000", "103107.484000", "103109.484000", "103111.484000", "103113.484000", "103115.484000", "103117.484000", "103119.484000", "103121.484000", "103123.484000", "103125.484000", "103127.484000", "103129.484000", "103131.484000", "103133.484000", "103135.484000", "103137.484000", "103139.484000", "103141.484000", "103143.484000", "103145.484000", "103147.484000", "103149.484000", "103151.484000", "103153.484000", "103155.484000", "103157.484000", "103159.484000", "103201.484000", "103203.484000", "103205.484000", "103207.484000", "103209.484000", "103211.484000", "103213.484000", "103215.484000", "103217.484000", "103219.484000", "103221.484000", "103223.484000", "103225.484000", "103227.484000", "103229.484000", "103231.484000", "103233.484000", "103235.484000", "103237.484000", "103239.484000", "103241.484000", "103243.484000", "103245.484000", "103247.484000", "103249.484000", "103251.484000", "103253.484000", "103255.484000", "103257.484000", "103259.484000", "103301.484000", "103303.484000", "103305.484000", "103307.484000", "103309.484000", "103311.484000", "103313.484000", "103315.984000", "103317.484000", "103319.484000", "103321.484000", "103323.484000", "103325.484000", "103327.984000", "103329.484000", "103331.484000", "103333.484000", "103335.484000", "103337.484000", "103339.484000", "103341.484000", "103343.484000", "103345.484000", "103347.484000", "103349.484000", "103351.484000", "103353.484000", "103355.484000", "103357.484000", "103359.484000", "103401.484000", "103403.484000", "103405.484000", "103407.484000", "103409.484000", "103411.484000", "103413.484000", "103415.453000"],
      "InstanceCreationTime": ["102717.500000", "102719.484000", "102721.484000", "102723.484000", "102725.484000", "102727.484000", "102729.484000", "102731.484000", "102733.484000", "102735.484000", "102737.484000", "102739.484000", "102741.484000", "102743.484000", "102745.484000", "102747.484000", "102749.484000", "102751.484000", "102753.484000", "102755.484000", "102757.484000", "102759.484000", "102801.484000", "102803.484000", "102805.484000", "102807.484000", "102809.484000", "102811.484000", "102813.484000", "102815.484000", "102817.484000", "102819.484000", "102821.484000", "102823.484000", "102825.484000", "102827.484000", "102829.484000", "102831.484000", "102833.484000", "102835.484000", "102837.484000", "102839.484000", "102841.484000", "102843.484000", "102845.484000", "102847.484000", "102849.484000", "102851.484000", "102853.484000", "102855.484000", "102857.484000", "102859.484000", "102901.484000", "102903.484000", "102905.484000", "102907.484000", "102909.484000", "102911.484000", "102913.484000", "102915.484000", "102917.484000", "102919.484000", "102921.484000", "102923.484000", "102925.484000", "102927.484000", "102929.984000", "102931.484000", "102933.484000", "102935.984000", "102937.484000", "102939.484000", "102941.484000", "102943.484000", "102945.484000", "102947.484000", "102949.484000", "102951.484000", "102953.484000", "102955.484000", "102957.484000", "102959.484000", "103001.484000", "103003.484000", "103005.484000", "103007.484000", "103009.484000", "103011.484000", "103013.484000", "103015.484000", "103017.484000", "103019.484000", "103021.484000", "103023.484000", "103025.484000", "103027.484000", "103029.484000", "103031.484000", "103033.484000", "103035.484000", "103037.484000", "103039.484000", "103041.484000", "103043.484000", "103045.484000", "103047.484000", "103049.484000", "103051.984000", "103053.484000", "103055.484000", "103057.484000", "103059.484000", "103101.484000", "103103.484000", "103105.484000", "103107.484000", "103109.484000", "103111.484000", "103113.484000", "103115.484000", "103117.484000", "103119.484000", "103121.484000", "103123.484000", "103125.484000", "103127.484000", "103129.484000", "103131.484000", "103133.484000", "103135.484000", "103137.484000", "103139.484000", "103141.484000", "103143.484000", "103145.484000", "103147.484000", "103149.484000", "103151.484000", "103153.484000", "103155.484000", "103157.484000", "103159.484000", "103201.484000", "103203.484000", "103205.484000", "103207.484000", "103209.484000", "103211.484000", "103213.484000", "103215.484000", "103217.484000", "103219.484000", "103221.484000", "103223.484000", "103225.484000", "103227.484000", "103229.484000", "103231.484000", "103233.484000", "103235.484000", "103237.484000", "103239.484000", "103241.484000", "103243.484000", "103245.484000", "103247.484000", "103249.484000", "103251.484000", "103253.484000", "103255.484000", "103257.484000", "103259.484000", "103301.484000", "103303.484000", "103305.484000", "103307.484000", "103309.484000", "103311.484000", "103313.484000", "103315.984000", "103317.484000", "103319.484000", "103321.484000", "103323.484000", "103325.484000", "103327.984000", "103329.484000", "103331.484000", "103333.484000", "103335.484000", "103337.484000", "103339.484000", "103341.484000", "103343.484000", "103345.484000", "103347.484000", "103349.484000", "103351.484000", "103353.484000", "103355.484000", "103357.484000", "103359.484000", "103401.484000", "103403.484000", "103405.484000", "103407.484000", "103409.484000", "103411.484000", "103413.484000", "103415.453000"],
      "InstanceNumber": [1, 2, 3, 4, 5, 6, 7, 8, 9, 10, 11, 12, 13, 14, 15, 16, 17, 18, 19, 20, 21, 22, 23, 24, 25, 26, 27, 28, 29, 30, 31, 32, 33, 34, 35, 36, 37, 38, 39, 40, 41, 42, 43, 44, 45, 46, 47, 48, 49, 50, 51, 52, 53, 54, 55, 56, 57, 58, 59, 60, 61, 62, 63, 64, 65, 66, 67, 68, 69, 70, 71, 72, 73, 74, 75, 76, 77, 78, 79, 80, 81, 82, 83, 84, 85, 86, 87, 88, 89, 90, 91, 92, 93, 94, 95, 96, 97, 98, 99, 100, 101, 102, 103, 104, 105, 106, 107, 108, 109, 110, 111, 112, 113, 114, 115, 116, 117, 118, 119, 120, 121, 122, 123, 124, 125, 126, 127, 128, 129, 130, 131, 132, 133, 134, 135, 136, 137, 138, 139, 140, 141, 142, 143, 144, 145, 146, 147, 148, 149, 150, 151, 152, 153, 154, 155, 156, 157, 158, 159, 160, 161, 162, 163, 164, 165, 166, 167, 168, 169, 170, 171, 172, 173, 174, 175, 176, 177, 178, 179, 180, 181, 182, 183, 184, 185, 186, 187, 188, 189, 190, 191, 192, 193, 194, 195, 196, 197, 198, 199, 200, 201, 202, 203, 204, 205, 206, 207, 208, 209, 210],
      "LargestImagePixelValue": [1592, 1487, 1487, 1452, 1619, 1535, 1627, 1425, 1437, 1468, 1433, 1533, 1412, 1553, 1428, 1418, 1480, 1441, 1482, 1422, 1435, 1477, 1476, 1453, 1668, 1432, 1439, 1470, 1444, 1409, 1442, 1442, 1414, 1466, 1447, 1447, 1432, 1446, 1456, 1452, 1452, 1532, 1435, 1706, 1446, 1439, 1442, 1418, 1435, 1506, 1450, 1453, 1489, 1460, 1449, 1523, 1524, 1425, 1470, 1434, 1426, 1447, 1476, 1515, 1626, 1426, 1443, 1466, 1451, 1451, 1456, 1457, 1475, 1471, 1483, 1475, 1596, 1545, 1659, 1478, 1472, 1476, 1506, 1493, 1540, 1513, 1552, 1545, 1526, 1544, 1520, 1559, 1542, 1560, 1538, 1595, 1562, 1588, 1559, 1570, 1584, 1570, 1571, 1576, 1558, 1556, 1547, 1547, 1558, 1589, 1562, 1577, 1567, 1556, 1536, 1564, 1587, 1574, 1563, 1569, 1554, 1559, 1575, 1571, 1590, 1559, 1581, 1546, 1538, 1535, 1538, 1534, 1518, 1539, 1594, 1566, 1540, 1547, 1594, 1563, 1541, 1535, 1589, 1572, 1561, 1579, 1649, 1544, 1563, 1565, 1550, 1564, 1540, 1542, 1543, 1538, 1546, 1548, 1560, 1545, 1556, 1553, 1544, 1543, 1561, 1569, 1556, 1547, 1603, 1552, 1575, 1571, 1573, 1597, 1596, 1599, 1606, 1582, 1604, 1588, 1616, 1601, 1605, 1584, 1556, 1596, 1586, 1590, 1590, 1586, 1596, 1596, 1582, 1586, 1572, 1568, 1559, 1555, 1570, 1572, 1560, 1565, 1562, 1573, 1555, 1584, 1555, 1551, 1626, 1572],
      "WindowCenter": [700.0, 696.0, 694.0, 693.0, 693.0, 692.0, 692.0, 690.0, 691.0, 692.0, 692.0, 694.0, 693.0, 694.0, 692.0, 692.0, 693.0, 693.0, 694.0, 694.0, 694.0, 695.0, 695.0, 694.0, 695.0, 692.0, 692.0, 693.0, 694.0, 695.0, 695.0, 695.0, 694.0, 695.0, 695.0, 696.0, 696.0, 695.0, 695.0, 695.0, 696.0, 696.0, 694.0, 696.0, 694.0, 693.0, 694.0, 693.0, 694.0, 694.0, 694.0, 693.0, 693.0, 694.0, 694.0, 694.0, 694.0, 693.0, 693.0, 694.0, 693.0, 694.0, 694.0, 694.0, 695.0, 693.0, 694.0, 694.0, 694.0, 695.0, 694.0, 694.0, 695.0, 696.0, 696.0, 695.0, 695.0, 694.0, 695.0, 693.0, 694.0, 694.0, 695.0, 696.0, 697.0, 696.0, 695.0, 694.0, 694.0, 695.0, 695.0, 695.0, 695.0, 696.0, 697.0, 697.0, 696.0, 698.0, 698.0, 697.0, 696.0, 695.0, 695.0, 696.0, 696.0, 697.0, 697.0, 696.0, 696.0, 696.0, 696.0, 696.0, 696.0, 696.0, 697.0, 697.0, 696.0, 696.0, 696.0, 696.0, 696.0, 696.0, 696.0, 697.0, 697.0, 695.0, 696.0, 696.0, 696.0, 696.0, 697.0, 697.0, 696.0, 696.0, 696.0, 696.0, 697.0, 697.0, 697.0, 697.0, 697.0, 697.0, 699.0, 699.0, 697.0, 697.0, 697.0, 697.0, 698.0, 698.0, 697.0, 697.0, 697.0, 697.0, 697.0, 697.0, 696.0, 697.0, 697.0, 697.0, 697.0, 697.0, 696.0, 696.0, 697.0, 698.0, 698.0, 697.0, 696.0, 696.0, 696.0, 697.0, 697.0, 697.0, 697.0, 697.0, 697.0, 697.0, 697.0, 696.0, 698.0, 698.0, 698.0, 697.0, 697.0, 698.0, 698.0, 698.0, 698.0, 698.0, 698.0, 698.0, 698.0, 700.0, 700.0, 700.0, 698.0, 697.0, 697.0, 698.0, 698.0, 698.0, 697.0, 697.0, 697.0, 698.0, 698.0, 699.0, 699.0, 698.0],
      "WindowWidth": [1464.0, 1456.0, 1451.0, 1448.0, 1448.0, 1445.0, 1446.0, 1442.0, 1444.0, 1447.0, 1447.0, 1450.0, 1449.0, 1451.0, 1447.0, 1447.0, 1449.0, 1450.0, 1450.0, 1451.0, 1451.0, 1453.0, 1452.0, 1451.0, 1452.0, 1447.0, 1446.0, 1450.0, 1451.0, 1453.0, 1453.0, 1453.0, 1452.0, 1454.0, 1454.0, 1455.0, 1455.0, 1454.0, 1454.0, 1454.0, 1455.0, 1455.0, 1451.0, 1455.0, 1451.0, 1450.0, 1450.0, 1450.0, 1451.0, 1452.0, 1450.0, 1449.0, 1450.0, 1452.0, 1452.0, 1452.0, 1450.0, 1449.0, 1450.0, 1451.0, 1449.0, 1452.0, 1451.0, 1451.0, 1453.0, 1449.0, 1450.0, 1452.0, 1452.0, 1453.0, 1451.0, 1451.0, 1454.0, 1456.0, 1456.0, 1454.0, 1453.0, 1451.0, 1453.0, 1450.0, 1451.0, 1450.0, 1454.0, 1456.0, 1457.0, 1455.0, 1453.0, 1451.0, 1452.0, 1454.0, 1453.0, 1454.0, 1454.0, 1457.0, 1458.0, 1458.0, 1457.0, 1461.0, 1460.0, 1458.0, 1454.0, 1453.0, 1453.0, 1455.0, 1455.0, 1458.0, 1457.0, 1456.0, 1455.0, 1456.0, 1456.0, 1456.0, 1455.0, 1456.0, 1457.0, 1457.0, 1456.0, 1456.0, 1455.0, 1455.0, 1455.0, 1455.0, 1456.0, 1457.0, 1457.0, 1454.0, 1455.0, 1456.0, 1456.0, 1456.0, 1457.0, 1457.0, 1456.0, 1455.0, 1456.0, 1456.0, 1457.0, 1458.0, 1459.0, 1457.0, 1458.0, 1458.0, 1462.0, 1462.0, 1458.0, 1457.0, 1457.0, 1457.0, 1459.0, 1460.0, 1458.0, 1458.0, 1458.0, 1457.0, 1457.0, 1457.0, 1456.0, 1457.0, 1458.0, 1457.0, 1458.0, 1457.0, 1456.0, 1457.0, 1457.0, 1459.0, 1459.0, 1457.0, 1456.0, 1455.0, 1456.0, 1457.0, 1458.0, 1458.0, 1458.0, 1457.0, 1457.0, 1457.0, 1458.0, 1456.0, 1459.0, 1460.0, 1459.0, 1458.0, 1458.0, 1460.0, 1459.0, 1459.0, 1459.0, 1460.0, 1460.0, 1460.0, 1461.0, 1464.0, 1465.0, 1464.0, 1460.0, 1458.0, 1457.0, 1459.0, 1460.0, 1460.0, 1458.0, 1458.0, 1458.0, 1461.0, 1461.0, 1461.0, 1462.0, 1460.0]
    },
    "slices": {}
  }
}