{
  "AcquisitionMatrixPE": 64,
  "AcquisitionNumber": 1,
  "AcquisitionTime": "10:19:47.270000",
  "BandwidthPerPixelPhaseEncode": 30.637,
  "BaseResolution": 64,
  "BidsGuess": [
    "func",
    "_acq-epfid2_dir-AP_run-3_bold"
],
  "CoilCombinationMethod": "Sum of Squares",
  "CoilString": "C:HEA;HEP",
  "ConversionSoftware": "dcm2niix",
  "ConversionSoftwareVersion": "v1.0.20240202",
  "DerivedVendorReportedEchoSpacing": 0.000510004,
  "DeviceSerialNumber": "35119",
  "DwellTime": 3.5e-06,
  "EchoTime": 0.03,
  "EffectiveEchoSpacing": 0.000510004,
  "FlipAngle": 78,
  "HeudiconvVersion": "1.1.6",
  "ImageComments": "V",
  "ImageOrientationPatientDICOM": [0.999852, -0.007648, -0.0154, 0, 0.895641, -0.444778],
  "ImageOrientationText": "Tra>Cor(-26.4)>Sag(-1.0)",
  "ImageType": [
    "ORIGINAL",
    "PRIMARY",
    "M",
    "ND",
    "MOSAIC"
],
  "ImagingFrequency": 123.251772,
  "InPlanePhaseEncodingDirectionDICOM": "COL",
  "InstitutionAddress": "Chaucer Road  15,Cambridge,UK,GB,CB2 2EF",
  "InstitutionName": "MRC-CBU",
  "MRAcquisitionType": "2D",
  "MagneticFieldStrength": 3,
  "Manufacturer": "Siemens",
  "ManufacturersModelName": "TrioTim",
  "MatrixCoilMode": "SENSE",
  "Modality": "MR",
  "NonlinearGradientCorrection": false,
  "PartialFourier": 1,
  "PatientPosition": "HFS",
  "PercentPhaseFOV": 100,
  "PercentSampling": 100,
  "PhaseEncodingDirection": "j-",
  "PhaseEncodingSteps": 64,
  "PhaseResolution": 1,
  "PixelBandwidth": 2230,
  "ProcedureStepDescription": "CBU^Neuroimaging",
  "ProtocolName": "CBU_DWEPI_BOLD210",
  "PulseSequenceDetails": "%SiemensSeq%\\ep2d_bold",
  "ReceiveCoilName": "HeadMatrix",
  "ReconMatrixPE": 64,
  "RepetitionTime": 2,
  "SAR": 0.133899,
  "ScanOptions": "FS",
  "ScanningSequence": "EP",
  "SequenceName": "*epfid2d1_64",
  "SequenceVariant": "SK",
  "SeriesDescription": "CBU_DWEPI_BOLD210",
  "SeriesNumber": 3,
  "ShimSetting": [-7835, -8808, -2091, 857, 221, -152, -163, 88],
  "SliceThickness": 3,
  "SliceTiming": [0, 1.035, 0.06, 1.095, 0.1225, 1.155, 0.1825, 1.2175, 0.2425, 1.2775, 0.305, 1.3375, 0.365, 1.4, 0.425, 1.46, 0.4875, 1.52, 0.5475, 1.5825, 0.6075, 1.6425, 0.67, 1.7025, 0.73, 1.765, 0.79, 1.825, 0.8525, 1.885, 0.9125, 1.9475, 0.9725],
  "SoftwareVersions": "syngo MR B15",
  "SpacingBetweenSlices": 3.75,
  "StationName": "MRC35119",
  "TaskName": "faceprocessing",
  "TotalReadoutTime": 0.0321303,
  "TxRefAmp": 327.749,
  "dcmmeta_affine": [
    [-2.999556064605713, 0.0, -0.06447950005531311, 92.73761749267578],
    [0.022943999618291855, 2.686923027038574, -1.6676706075668335, -52.4483528137207],
    [-0.04619999974966049, 1.3343340158462524, 3.358156681060791, -99.290283203125],
    [0.0, 0.0, 0.0, 1.0]
],
  "dcmmeta_reorient_transform": [
    [0.0, -1.0, 0.0, 63.0],
    [1.0, 0.0, 0.0, 0.0],
    [0.0, 0.0, 1.0, 0.0],
    [0.0, 0.0, 0.0, 1.0]
],
  "dcmmeta_shape": [64, 64, 33, 210],
  "dcmmeta_slice_dim": 2,
  "dcmmeta_version": 0.6,
  "global": {
    "const": {
      "AcquisitionMatrix": [64, 0, 0, 64],
      "AngioFlag": "N",
      "BitsAllocated": 16,
      "BitsStored": 12,
      "Columns": 384,
      "EchoNumbers": 1,
      "EchoTime": 30.0,
      "EchoTrainLength": 1,
      "FlipAngle": 78.0,
      "HighBit": 11,
      "ImageOrientationPatient": [0.999852, -0.007648, -0.0154, -0.0, 0.895641, -0.444778],
      "ImagePositionPatient": [-572.666574, -543.064435, 205.658198],
      "ImageType": [
        "ORIGINAL",
        "PRIMARY",
        "M",
        "ND",
        "MOSAIC"
],
      "ImagedNucleus": "1H",
      "ImagingFrequency": 123.251772,
      "InPlanePhaseEncodingDirection": "COL",
      "MRAcquisitionType": "2D",
      "MagneticFieldStrength": 3.0,
      "Manufacturer": "SIEMENS",
      "ManufacturerModelName": "TrioTim",
      "Modality": "MR",
      "NumberOfAverages": 1.0,
      "NumberOfPhaseEncodingSteps": 64,
      "PercentPhaseFieldOfView": 100.0,
      "PercentSampling": 100.0,
      "PerformedProcedureStepStartTime": "095652.046000",
      "PhotometricInterpretation": "MONOCHROME2",
      "PixelAspectRatio": [1, 1],
      "PixelBandwidth": 2230.0,
      "PixelRepresentation": 0,
      "PixelSpacing": [3.0, 3.0],
      "ProtocolName": "CBU_DWEPI_BOLD210",
      "RepetitionTime": 2000.0,
      "Rows": 384,
      "SAR": 0.133899,
      "SamplesPerPixel": 1,
      "ScanOptions": "FS",
      "ScanningSequence": "EP",
      "SequenceName": "*epfid2d1_64",
      "SequenceVariant": "SK",
      "SeriesDescription": "CBU_DWEPI_BOLD210",
      "SeriesNumber": 3,
      "SeriesTime": "101950.703000",
      "SliceLocation": -67.185516,
      "SliceThickness": 3.0,
      "SmallestImagePixelValue": 0,
      "SoftwareVersions": "syngo MR B15",
      "SpacingBetweenSlices": 3.75,
      "SpecificCharacterSet": "ISO_IR 100",
      "StudyID": "1",
      "StudyTime": "095651.859000",
      "TransmitCoilName": "Body",
      "VariableFlipAngleFlag": "N",
      "WindowCenterWidthExplanation": "Algo1",
      "dBdt": 0.0},
    "slices": {}
  },
  "time": {
    "samples": {
      "AcquisitionNumber": [1, 2, 3, 4, 5, 6, 7, 8, 9, 10, 11, 12, 13, 14, 15, 16, 17, 18, 19, 20, 21, 22, 23, 24, 25, 26, 27, 28, 29, 30, 31, 32, 33, 34, 35, 36, 37, 38, 39, 40, 41, 42, 43, 44, 45, 46, 47, 48, 49, 50, 51, 52, 53, 54, 55, 56, 57, 58, 59, 60, 61, 62, 63, 64, 65, 66, 67, 68, 69, 70, 71, 72, 73, 74, 75, 76, 77, 78, 79, 80, 81, 82, 83, 84, 85, 86, 87, 88, 89, 90, 91, 92, 93, 94, 95, 96, 97, 98, 99, 100, 101, 102, 103, 104, 105, 106, 107, 108, 109, 110, 111, 112, 113, 114, 115, 116, 117, 118, 119, 120, 121, 122, 123, 124, 125, 126, 127, 128, 129, 130, 131, 132, 133, 134, 135, 136, 137, 138, 139, 140, 141, 142, 143, 144, 145, 146, 147, 148, 149, 150, 151, 152, 153, 154, 155, 156, 157, 158, 159, 160, 161, 162, 163, 164, 165, 166, 167, 168, 169, 170, 171, 172, 173, 174, 175, 176, 177, 178, 179, 180, 181, 182, 183, 184, 185, 186, 187, 188, 189, 190, 191, 192, 193, 194, 195, 196, 197, 198, 199, 200, 201, 202, 203, 204, 205, 206, 207, 208, 209, 210],
      "AcquisitionTime": ["101947.270000", "101949.277500", "101951.285000", "101953.295000", "101955.302500", "101957.310000", "101959.317500", "102001.325000", "102003.335000", "102005.342500", "102007.350000", "102009.357500", "102011.367500", "102013.375000", "102015.382500", "102017.390000", "102019.397500", "102021.407500", "102023.415000", "102025.422500", "102027.430000", "102029.437500", "102031.447500", "102033.455000", "102035.462500", "102037.470000", "102039.477500", "102041.487500", "102043.495000", "102045.502500", "102047.510000", "102049.520000", "102051.527500", "102053.535000", "102055.542500", "102057.550000", "102059.560000", "102101.567500", "102103.575000", "102105.582500", "102107.590000", "102109.600000", "102111.607500", "102113.615000", "102115.622500", "102117.632500", "102119.640000", "102121.647500", "102123.655000", "102125.662500", "102127.672500", "102129.680000", "102131.687500", "102133.695000", "102135.702500", "102137.712500", "102139.720000", "102141.727500", "102143.735000", "102145.745000", "102147.752500", "102149.760000", "102151.767500", "102153.775000", "102155.785000", "102157.792500", "102159.800000", "102201.807500", "102203.815000", "102205.825000", "102207.832500", "102209.840000", "102211.847500", "102213.855000", "102215.865000", "102217.872500", "102219.880000", "102221.887500", "102223.897500", "102225.905000", "102227.912500", "102229.920000", "102231.927500", "102233.937500", "102235.945000", "102237.952500", "102239.960000", "102241.967500", "102243.977500", "102245.985000", "102247.992500", "102250.000000", "102252.010000", "102254.017500", "102256.025000", "102258.032500", "102300.040000", "102302.050000", "102304.057500", "102306.065000", "102308.072500", "102310.080000", "102312.090000", "102314.097500", "102316.105000", "102318.112500", "102320.122500", "102322.130000", "102324.137500", "102326.145000", "102328.152500", "102330.162500", "102332.170000", "102334.177500", "102336.185000", "102338.192500", "102340.202500", "102342.210000", "102344.217500", "102346.225000", "102348.232500", "102350.242500", "102352.250000", "102354.257500", "102356.265000", "102358.275000", "102400.282500", "102402.290000", "102404.297500", "102406.305000", "102408.315000", "102410.322500", "102412.330000", "102414.337500", "102416.345000", "102418.355000", "102420.362500", "102422.370000", "102424.377500", "102426.387500", "102428.395000", "102430.402500", "102432.410000", "102434.417500", "102436.427500", "102438.435000", "102440.442500", "102442.450000", "102444.457500", "102446.467500", "102448.475000", "102450.482500", "102452.490000", "102454.500000", "102456.507500", "102458.515000", "102500.522500", "102502.530000", "102504.540000", "102506.547500", "102508.555000", "102510.562500", "102512.570000", "102514.580000", "102516.587500", "102518.595000", "102520.602500", "102522.610000", "102524.620000", "102526.627500", "102528.635000", "102530.642500", "102532.652500", "102534.660000", "102536.667500", "102538.675000", "102540.682500", "102542.692500", "102544.700000", "102546.707500", "102548.715000", "102550.722500", "102552.732500", "102554.740000", "102556.747500", "102558.755000", "102600.765000", "102602.772500", "102604.780000", "102606.787500", "102608.795000", "102610.805000", "102612.812500", "102614.820000", "102616.827500", "102618.835000", "102620.845000", "102622.852500", "102624.860000", "102626.867500", "102628.877500", "102630.885000", "102632.892500", "102634.900000", "102636.907500", "102638.917500", "102640.925000", "102642.932500", "102644.940000", "102646.947500"],
      "ContentTime": ["101950.718000", "101952.703000", "101954.703000", "101956.703000", "101958.703000", "102000.703000", "102002.703000", "102004.703000", "102006.703000", "102008.703000", "102010.703000", "102012.703000", "102014.703000", "102016.703000", "102018.703000", "102020.703000", "102022.703000", "102024.703000", "102026.703000", "102028.703000", "102030.703000", "102032.703000", "102034.703000", "102036.703000", "102038.703000", "102040.703000", "102042.703000", "102044.703000", "102046.703000", "102048.703000", "102050.703000", "102052.703000", "102054.703000", "102056.703000", "102058.703000", "102100.703000", "102102.703000", "102104.703000", "102106.703000", "102108.703000", "102110.703000", "102112.703000", "102114.703000", "102116.703000", "102118.703000", "102120.703000", "102122.703000", "102124.703000", "102126.703000", "102128.703000", "102130.703000", "102132.703000", "102134.703000", "102136.703000", "102138.703000", "102140.703000", "102142.703000", "102144.703000", "102146.703000", "102148.703000", "102150.703000", "102152.703000", "102154.703000", "102156.703000", "102158.703000", "102200.703000", "102202.703000", "102204.703000", "102206.703000", "102208.703000", "102210.703000", "102212.703000", "102214.703000", "102216.703000", "102218.703000", "102220.703000", "102222.703000", "102224.703000", "102226.703000", "102228.703000", "102230.703000", "102232.703000", "102234.703000", "102236.703000", "102238.703000", "102240.703000", "102242.703000", "102244.703000", "102246.703000", "102248.703000", "102250.703000", "102252.703000", "102254.703000", "102256.703000", "102258.703000", "102300.703000", "102302.703000", "102304.703000", "102306.703000", "102308.703000", "102310.703000", "102312.703000", "102314.703000", "102316.703000", "102318.703000", "102320.703000", "102322.703000", "102324.703000", "102326.703000", "102328.703000", "102330.703000", "102332.703000", "102334.703000", "102336.703000", "102338.703000", "102340.703000", "102342.703000", "102344.703000", "102346.703000", "102348.703000", "102350.703000", "102352.703000", "102354.703000", "102356.703000", "102358.703000", "102400.703000", "102402.703000", "102404.703000", "102406.703000", "102408.703000", "102410.703000", "102412.703000", "102414.703000", "102416.703000", "102418.703000", "102420.703000", "102422.703000", "102424.703000", "102426.703000", "102428.703000", "102430.703000", "102432.703000", "102434.703000", "102436.703000", "102438.703000", "102440.703000", "102442.703000", "102444.703000", "102446.703000", "102448.703000", "102450.703000", "102452.703000", "102454.703000", "102456.703000", "102458.703000", "102500.703000", "102502.703000", "102504.703000", "102506.703000", "102508.703000", "102510.703000", "102512.703000", "102514.703000", "102516.703000", "102518.703000", "102520.703000", "102522.703000", "102524.703000", "102526.703000", "102528.703000", "102530.703000", "102532.703000", "102534.703000", "102536.703000", "102538.703000", "102540.703000", "102542.703000", "102544.703000", "102546.703000", "102548.703000", "102550.703000", "102552.703000", "102554.703000", "102556.703000", "102558.703000", "102600.703000", "102602.703000", "102604.703000", "102606.703000", "102608.703000", "102610.703000", "102612.703000", "102614.703000", "102616.703000", "102618.703000", "102620.703000", "102622.703000", "102624.703000", "102626.703000", "102628.703000", "102630.703000", "102632.703000", "102634.703000", "102636.703000", "102638.703000", "102640.703000", "102642.703000", "102644.703000", "102646.703000", "102648.250000"],
      "InstanceCreationTime": ["101950.718000", "101952.703000", "101954.703000", "101956.703000", "101958.703000", "102000.703000", "102002.703000", "102004.703000", "102006.703000", "102008.703000", "102010.703000", "102012.703000", "102014.703000", "102016.703000", "102018.703000", "102020.703000", "102022.703000", "102024.703000", "102026.703000", "102028.703000", "102030.703000", "102032.703000", "102034.703000", "102036.703000", "102038.703000", "102040.703000", "102042.703000", "102044.703000", "102046.703000", "102048.703000", "102050.703000", "102052.703000", "102054.703000", "102056.703000", "102058.703000", "102100.703000", "102102.703000", "102104.703000", "102106.703000", "102108.703000", "102110.703000", "102112.703000", "102114.703000", "102116.703000", "102118.703000", "102120.703000", "102122.703000", "102124.703000", "102126.703000", "102128.703000", "102130.703000", "102132.703000", "102134.703000", "102136.703000", "102138.703000", "102140.703000", "102142.703000", "102144.703000", "102146.703000", "102148.703000", "102150.703000", "102152.703000", "102154.703000", "102156.703000", "102158.703000", "102200.703000", "102202.703000", "102204.703000", "102206.703000", "102208.703000", "102210.703000", "102212.703000", "102214.703000", "102216.703000", "102218.703000", "102220.703000", "102222.703000", "102224.703000", "102226.703000", "102228.703000", "102230.703000", "102232.703000", "102234.703000", "102236.703000", "102238.703000", "102240.703000", "102242.703000", "102244.703000", "102246.703000", "102248.703000", "102250.703000", "102252.703000", "102254.703000", "102256.703000", "102258.703000", "102300.703000", "102302.703000", "102304.703000", "102306.703000", "102308.703000", "102310.703000", "102312.703000", "102314.703000", "102316.703000", "102318.703000", "102320.703000", "102322.703000", "102324.703000", "102326.703000", "102328.703000", "102330.703000", "102332.703000", "102334.703000", "102336.703000", "102338.703000", "102340.703000", "102342.703000", "102344.703000", "102346.703000", "102348.703000", "102350.703000", "102352.703000", "102354.703000", "102356.703000", "102358.703000", "102400.703000", "102402.703000", "102404.703000", "102406.703000", "102408.703000", "102410.703000", "102412.703000", "102414.703000", "102416.703000", "102418.703000", "102420.703000", "102422.703000", "102424.703000", "102426.703000", "102428.703000", "102430.703000", "102432.703000", "102434.703000", "102436.703000", "102438.703000", "102440.703000", "102442.703000", "102444.703000", "102446.703000", "102448.703000", "102450.703000", "102452.703000", "102454.703000", "102456.703000", "102458.703000", "102500.703000", "102502.703000", "102504.703000", "102506.703000", "102508.703000", "102510.703000", "102512.703000", "102514.703000", "102516.703000", "102518.703000", "102520.703000", "102522.703000", "102524.703000", "102526.703000", "102528.703000", "102530.703000", "102532.703000", "102534.703000", "102536.703000", "102538.703000", "102540.703000", "102542.703000", "102544.703000", "102546.703000", "102548.703000", "102550.703000", "102552.703000", "102554.703000", "102556.703000", "102558.703000", "102600.703000", "102602.703000", "102604.703000", "102606.703000", "102608.703000", "102610.703000", "102612.703000", "102614.703000", "102616.703000", "102618.703000", "102620.703000", "102622.703000", "102624.703000", "102626.703000", "102628.703000", "102630.703000", "102632.703000", "102634.703000", "102636.703000", "102638.703000", "102640.703000", "102642.703000", "102644.703000", "102646.703000", "102648.250000"],
      "InstanceNumber": [1, 2, 3, 4, 5, 6, 7, 8, 9, 10, 11, 12, 13, 14, 15, 16, 17, 18, 19, 20, 21, 22, 23, 24, 25, 26, 27, 28, 29, 30, 31, 32, 33, 34, 35, 36, 37, 38, 39, 40, 41, 42, 43, 44, 45, 46, 47, 48, 49, 50, 51, 52, 53, 54, 55, 56, 57, 58, 59, 60, 61, 62, 63, 64, 65, 66, 67, 68, 69, 70, 71, 72, 73, 74, 75, 76, 77, 78, 79, 80, 81, 82, 83, 84, 85, 86, 87, 88, 89, 90, 91, 92, 93, 94, 95, 96, 97, 98, 99, 100, 101, 102, 103, 104, 105, 106, 107, 108, 109, 110, 111, 112, 113, 114, 115, 116, 117, 118, 119, 120, 121, 122, 123, 124, 125, 126, 127, 128, 129, 130, 131, 132, 133, 134, 135, 136, 137, 138, 139, 140, 141, 142, 143, 144, 145, 146, 147, 148, 149, 150, 151, 152, 153, 154, 155, 156, 157, 158, 159, 160, 161, 162, 163, 164, 165, 166, 167, 168, 169, 170, 171, 172, 173, 174, 175, 176, 177, 178, 179, 180, 181, 182, 183, 184, 185, 186, 187, 188, 189, 190, 191, 192, 193, 194, 195, 196, 197, 198, 199, 200, 201, 202, 203, 204, 205, 206, 207, 208, 209, 210],
      "LargestImagePixelValue": [1667, 1592, 1514, 1495, 1531, 1574, 1540, 1624, 1543, 1542, 1534, 1563, 1557, 1567, 1561, 1554, 1549, 1578, 1579, 1555, 1567, 1564, 1559, 1576, 1623, 1560, 1627, 1555, 1565, 1557, 1552, 1558, 1548, 1569, 1582, 1563, 1581, 1555, 1599, 1568, 1573, 1565, 1541, 1575, 1549, 1541, 1539, 1545, 1575, 1542, 1567, 1543, 1527, 1571, 1537, 1552, 1548, 1536, 1558, 1557, 1562, 1563, 1548, 1553, 1552, 1533, 1599, 1541, 1556, 1551, 1557, 1552, 1559, 1564, 1559, 1542, 1540, 1538, 1544, 1536, 1558, 1567, 1539, 1537, 1560, 1553, 1551, 1541, 1556, 1536, 1558, 1523, 1665, 1510, 1521, 1533, 1541, 1533, 1543, 1522, 1530, 1555, 1532, 1521, 1511, 1528, 1540, 1506, 1548, 1524, 1525, 1527, 1517, 1553, 1512, 1537, 1510, 1510, 1531, 1533, 1543, 1510, 1535, 1557, 1559, 1526, 1535, 1539, 1543, 1525, 1539, 1514, 1534, 1514, 1512, 1526, 1531, 1543, 1543, 1518, 1513, 1549, 1519, 1522, 1534, 1539, 1534, 1549, 1537, 1514, 1539, 1504, 1519, 1526, 1509, 1552, 1522, 1551, 1534, 1543, 1546, 1543, 1544, 1513, 1536, 1537, 1563, 1497, 1657, 1630, 1544, 1523, 1619, 1512, 1539, 1522, 1533, 1520, 1531, 1536, 1538, 1523, 1520, 1535, 1558, 1536, 1531, 1591, 1533, 1513, 1514, 1509, 1521, 1525, 1519, 1508, 1541, 1539, 1538, 1512, 1509, 1549, 1519, 1557, 1506, 1532, 1504, 1524, 1518, 1510],
      "WindowCenter": [698.0, 697.0, 698.0, 697.0, 696.0, 695.0, 694.0, 694.0, 693.0, 693.0, 693.0, 693.0, 693.0, 693.0, 693.0, 693.0, 692.0, 693.0, 694.0, 694.0, 693.0, 693.0, 693.0, 693.0, 695.0, 694.0, 695.0, 694.0, 693.0, 693.0, 694.0, 696.0, 697.0, 696.0, 695.0, 695.0, 695.0, 695.0, 696.0, 695.0, 694.0, 694.0, 695.0, 695.0, 694.0, 694.0, 694.0, 695.0, 696.0, 695.0, 695.0, 694.0, 694.0, 695.0, 695.0, 694.0, 694.0, 695.0, 695.0, 695.0, 695.0, 695.0, 695.0, 695.0, 695.0, 694.0, 693.0, 692.0, 693.0, 693.0, 694.0, 695.0, 696.0, 695.0, 694.0, 694.0, 693.0, 693.0, 694.0, 695.0, 695.0, 694.0, 694.0, 694.0, 695.0, 694.0, 694.0, 694.0, 695.0, 696.0, 696.0, 695.0, 695.0, 694.0, 694.0, 695.0, 695.0, 694.0, 694.0, 694.0, 693.0, 694.0, 695.0, 695.0, 695.0, 695.0, 695.0, 695.0, 695.0, 695.0, 695.0, 695.0, 696.0, 696.0, 695.0, 695.0, 695.0, 695.0, 695.0, 695.0, 695.0, 695.0, 695.0, 695.0, 696.0, 696.0, 697.0, 696.0, 695.0, 696.0, 696.0, 695.0, 695.0, 695.0, 696.0, 696.0, 696.0, 696.0, 696.0, 696.0, 696.0, 696.0, 695.0, 696.0, 696.0, 696.0, 695.0, 695.0, 696.0, 697.0, 696.0, 695.0, 694.0, 694.0, 695.0, 695.0, 696.0, 696.0, 696.0, 696.0, 698.0, 697.0, 696.0, 697.0, 697.0, 697.0, 698.0, 696.0, 696.0, 696.0, 696.0, 696.0, 695.0, 694.0, 695.0, 695.0, 695.0, 695.0, 695.0, 695.0, 695.0, 696.0, 696.0, 696.0, 696.0, 696.0, 696.0, 696.0, 697.0, 697.0, 697.0, 697.0, 696.0, 696.0, 697.0, 697.0, 696.0, 696.0, 697.0, 696.0, 696.0, 696.0, 695.0, 695.0, 695.0, 695.0, 695.0, 696.0, 696.0, 696.0],
      "WindowWidth": [1460.0, 1458.0, 1461.0, 1456.0, 1454.0, 1453.0, 1450.0, 1451.0, 1449.0, 1449.0, 1449.0, 1448.0, 1448.0, 1449.0, 1448.0, 1448.0, 1447.0, 1449.0, 1450.0, 1450.0, 1449.0, 1448.0, 1449.0, 1448.0, 1453.0, 1450.0, 1453.0, 1450.0, 1448.0, 1448.0, 1451.0, 1455.0, 1457.0, 1455.0, 1454.0, 1452.0, 1452.0, 1454.0, 1454.0, 1452.0, 1451.0, 1451.0, 1453.0, 1452.0, 1451.0, 1451.0, 1450.0, 1452.0, 1454.0, 1453.0, 1452.0, 1450.0, 1450.0, 1453.0, 1452.0, 1451.0, 1451.0, 1453.0, 1454.0, 1454.0, 1454.0, 1453.0, 1452.0, 1454.0, 1452.0, 1450.0, 1449.0, 1446.0, 1448.0, 1449.0, 1451.0, 1453.0, 1455.0, 1454.0, 1452.0, 1450.0, 1450.0, 1449.0, 1450.0, 1453.0, 1453.0, 1451.0, 1451.0, 1451.0, 1452.0, 1451.0, 1451.0, 1452.0, 1453.0, 1455.0, 1455.0, 1453.0, 1453.0, 1450.0, 1450.0, 1452.0, 1452.0, 1450.0, 1450.0, 1450.0, 1449.0, 1450.0, 1453.0, 1453.0, 1452.0, 1452.0, 1454.0, 1454.0, 1454.0, 1453.0, 1453.0, 1454.0, 1455.0, 1455.0, 1454.0, 1453.0, 1453.0, 1453.0, 1454.0, 1453.0, 1453.0, 1453.0, 1453.0, 1454.0, 1456.0, 1455.0, 1457.0, 1454.0, 1453.0, 1456.0, 1455.0, 1454.0, 1452.0, 1454.0, 1456.0, 1456.0, 1455.0, 1454.0, 1455.0, 1456.0, 1456.0, 1455.0, 1454.0, 1454.0, 1456.0, 1455.0, 1454.0, 1453.0, 1457.0, 1457.0, 1455.0, 1452.0, 1452.0, 1452.0, 1453.0, 1454.0, 1455.0, 1455.0, 1455.0, 1456.0, 1459.0, 1457.0, 1456.0, 1457.0, 1458.0, 1457.0, 1459.0, 1456.0, 1456.0, 1456.0, 1455.0, 1455.0, 1454.0, 1452.0, 1454.0, 1454.0, 1454.0, 1452.0, 1453.0, 1454.0, 1454.0, 1455.0, 1455.0, 1455.0, 1455.0, 1454.0, 1455.0, 1456.0, 1457.0, 1457.0, 1457.0, 1457.0, 1456.0, 1457.0, 1457.0, 1457.0, 1456.0, 1456.0, 1457.0, 1456.0, 1456.0, 1456.0, 1454.0, 1454.0, 1453.0, 1453.0, 1453.0, 1455.0, 1456.0, 1455.0]
    },
    "slices": {}
  }
}