{
  "AcquisitionMatrixPE": 64,
  "AcquisitionNumber": 1,
  "AcquisitionTime": "11:04:55.620000",
  "BandwidthPerPixelPhaseEncode": 30.637,
  "BaseResolution": 64,
  "BidsGuess": [
    "func",
    "_acq-epfid2_dir-AP_run-9_bold"
],
  "CoilCombinationMethod": "Sum of Squares",
  "CoilString": "C:HEA;HEP",
  "ConversionSoftware": "dcm2niix",
  "ConversionSoftwareVersion": "v1.0.20240202",
  "DerivedVendorReportedEchoSpacing": 0.000510004,
  "DeviceSerialNumber": "35119",
  "DwellTime": 3.5e-06,
  "EchoTime": 0.03,
  "EffectiveEchoSpacing": 0.000510004,
  "FlipAngle": 78,
  "HeudiconvVersion": "1.1.6",
  "ImageComments": "V",
  "ImageOrientationPatientDICOM": [0.999852, -0.007648, -0.0154, 0, 0.895641, -0.444778],
  "ImageOrientationText": "Tra>Cor(-26.4)>Sag(-1.0)",
  "ImageType": [
    "ORIGINAL",
    "PRIMARY",
    "M",
    "ND",
    "MOSAIC"
],
  "ImagingFrequency": 123.251782,
  "InPlanePhaseEncodingDirectionDICOM": "COL",
  "InstitutionAddress": "Chaucer Road  15,Cambridge,UK,GB,CB2 2EF",
  "InstitutionName": "MRC-CBU",
  "MRAcquisitionType": "2D",
  "MagneticFieldStrength": 3,
  "Manufacturer": "Siemens",
  "ManufacturersModelName": "TrioTim",
  "MatrixCoilMode": "SENSE",
  "Modality": "MR",
  "NonlinearGradientCorrection": false,
  "PartialFourier": 1,
  "PatientPosition": "HFS",
  "PercentPhaseFOV": 100,
  "PercentSampling": 100,
  "PhaseEncodingDirection": "j-",
  "PhaseEncodingSteps": 64,
  "PhaseResolution": 1,
  "PixelBandwidth": 2230,
  "ProcedureStepDescription": "CBU^Neuroimaging",
  "ProtocolName": "CBU_DWEPI_BOLD210",
  "PulseSequenceDetails": "%SiemensSeq%\\ep2d_bold",
  "ReceiveCoilName": "HeadMatrix",
  "ReconMatrixPE": 64,
  "RepetitionTime": 2,
  "SAR": 0.133899,
  "ScanOptions": "FS",
  "ScanningSequence": "EP",
  "SequenceName": "*epfid2d1_64",
  "SequenceVariant": "SK",
  "SeriesDescription": "CBU_DWEPI_BOLD210",
  "SeriesNumber": 9,
  "ShimSetting": [-7835, -8808, -2091, 857, 221, -152, -163, 88],
  "SliceThickness": 3,
  "SliceTiming": [0, 1.035, 0.0625, 1.095, 0.1225, 1.1575, 0.1825, 1.2175, 0.245, 1.2775, 0.305, 1.34, 0.365, 1.4, 0.4275, 1.46, 0.4875, 1.5225, 0.5475, 1.5825, 0.61, 1.6425, 0.67, 1.705, 0.73, 1.765, 0.7925, 1.825, 0.8525, 1.8875, 0.9125, 1.9475, 0.975],
  "SoftwareVersions": "syngo MR B15",
  "SpacingBetweenSlices": 3.75,
  "StationName": "MRC35119",
  "TaskName": "faceprocessing",
  "TotalReadoutTime": 0.0321303,
  "TxRefAmp": 327.749,
  "dcmmeta_affine": [
    [-2.999556064605713, 0.0, -0.06447950005531311, 92.73761749267578],
    [0.022943999618291855, 2.686923027038574, -1.6676706075668335, -52.4483528137207],
    [-0.04619999974966049, 1.3343340158462524, 3.358156681060791, -99.290283203125],
    [0.0, 0.0, 0.0, 1.0]
],
  "dcmmeta_reorient_transform": [
    [0.0, -1.0, 0.0, 63.0],
    [1.0, 0.0, 0.0, 0.0],
    [0.0, 0.0, 1.0, 0.0],
    [0.0, 0.0, 0.0, 1.0]
],
  "dcmmeta_shape": [64, 64, 33, 210],
  "dcmmeta_slice_dim": 2,
  "dcmmeta_version": 0.6,
  "global": {
    "const": {
      "AcquisitionMatrix": [64, 0, 0, 64],
      "AngioFlag": "N",
      "BitsAllocated": 16,
      "BitsStored": 12,
      "Columns": 384,
      "EchoNumbers": 1,
      "EchoTime": 30.0,
      "EchoTrainLength": 1,
      "FlipAngle": 78.0,
      "HighBit": 11,
      "ImageOrientationPatient": [0.999852, -0.007648, -0.0154, -0.0, 0.895641, -0.444778],
      "ImagePositionPatient": [-572.666574, -543.064435, 205.658198],
      "ImageType": [
        "ORIGINAL",
        "PRIMARY",
        "M",
        "ND",
        "MOSAIC"
],
      "ImagedNucleus": "1H",
      "ImagingFrequency": 123.251782,
      "InPlanePhaseEncodingDirection": "COL",
      "MRAcquisitionType": "2D",
      "MagneticFieldStrength": 3.0,
      "Manufacturer": "SIEMENS",
      "ManufacturerModelName": "TrioTim",
      "Modality": "MR",
      "NumberOfAverages": 1.0,
      "NumberOfPhaseEncodingSteps": 64,
      "PercentPhaseFieldOfView": 100.0,
      "PercentSampling": 100.0,
      "PerformedProcedureStepStartTime": "095652.046000",
      "PhotometricInterpretation": "MONOCHROME2",
      "PixelAspectRatio": [1, 1],
      "PixelBandwidth": 2230.0,
      "PixelRepresentation": 0,
      "PixelSpacing": [3.0, 3.0],
      "ProtocolName": "CBU_DWEPI_BOLD210",
      "RepetitionTime": 2000.0,
      "Rows": 384,
      "SAR": 0.133899,
      "SamplesPerPixel": 1,
      "ScanOptions": "FS",
      "ScanningSequence": "EP",
      "SequenceName": "*epfid2d1_64",
      "SequenceVariant": "SK",
      "SeriesDescription": "CBU_DWEPI_BOLD210",
      "SeriesNumber": 9,
      "SeriesTime": "110458.562000",
      "SliceLocation": -67.185516,
      "SliceThickness": 3.0,
      "SmallestImagePixelValue": 0,
      "SoftwareVersions": "syngo MR B15",
      "SpacingBetweenSlices": 3.75,
      "SpecificCharacterSet": "ISO_IR 100",
      "StudyID": "1",
      "StudyTime": "095651.859000",
      "TransmitCoilName": "Body",
      "VariableFlipAngleFlag": "N",
      "WindowCenterWidthExplanation": "Algo1",
      "dBdt": 0.0},
    "slices": {}
  },
  "time": {
    "samples": {
      "AcquisitionNumber": [1, 2, 3, 4, 5, 6, 7, 8, 9, 10, 11, 12, 13, 14, 15, 16, 17, 18, 19, 20, 21, 22, 23, 24, 25, 26, 27, 28, 29, 30, 31, 32, 33, 34, 35, 36, 37, 38, 39, 40, 41, 42, 43, 44, 45, 46, 47, 48, 49, 50, 51, 52, 53, 54, 55, 56, 57, 58, 59, 60, 61, 62, 63, 64, 65, 66, 67, 68, 69, 70, 71, 72, 73, 74, 75, 76, 77, 78, 79, 80, 81, 82, 83, 84, 85, 86, 87, 88, 89, 90, 91, 92, 93, 94, 95, 96, 97, 98, 99, 100, 101, 102, 103, 104, 105, 106, 107, 108, 109, 110, 111, 112, 113, 114, 115, 116, 117, 118, 119, 120, 121, 122, 123, 124, 125, 126, 127, 128, 129, 130, 131, 132, 133, 134, 135, 136, 137, 138, 139, 140, 141, 142, 143, 144, 145, 146, 147, 148, 149, 150, 151, 152, 153, 154, 155, 156, 157, 158, 159, 160, 161, 162, 163, 164, 165, 166, 167, 168, 169, 170, 171, 172, 173, 174, 175, 176, 177, 178, 179, 180, 181, 182, 183, 184, 185, 186, 187, 188, 189, 190, 191, 192, 193, 194, 195, 196, 197, 198, 199, 200, 201, 202, 203, 204, 205, 206, 207, 208, 209, 210],
      "AcquisitionTime": ["110455.620000", "110457.630000", "110459.637500", "110501.645000", "110503.652500", "110505.660000", "110507.670000", "110509.677500", "110511.685000", "110513.692500", "110515.700000", "110517.710000", "110519.717500", "110521.725000", "110523.732500", "110525.742500", "110527.750000", "110529.757500", "110531.765000", "110533.772500", "110535.782500", "110537.790000", "110539.797500", "110541.805000", "110543.812500", "110545.822500", "110547.830000", "110549.837500", "110551.845000", "110553.855000", "110555.862500", "110557.870000", "110559.877500", "110601.885000", "110603.895000", "110605.902500", "110607.910000", "110609.917500", "110611.925000", "110613.935000", "110615.942500", "110617.950000", "110619.957500", "110621.965000", "110623.975000", "110625.982500", "110627.990000", "110629.997500", "110632.007500", "110634.015000", "110636.022500", "110638.030000", "110640.037500", "110642.047500", "110644.055000", "110646.062500", "110648.070000", "110650.077500", "110652.087500", "110654.095000", "110656.102500", "110658.110000", "110700.120000", "110702.127500", "110704.135000", "110706.142500", "110708.150000", "110710.160000", "110712.167500", "110714.175000", "110716.182500", "110718.190000", "110720.200000", "110722.207500", "110724.215000", "110726.222500", "110728.232500", "110730.240000", "110732.247500", "110734.255000", "110736.262500", "110738.272500", "110740.280000", "110742.287500", "110744.295000", "110746.302500", "110748.312500", "110750.320000", "110752.327500", "110754.335000", "110756.345000", "110758.352500", "110800.360000", "110802.367500", "110804.375000", "110806.385000", "110808.392500", "110810.400000", "110812.407500", "110814.415000", "110816.425000", "110818.432500", "110820.440000", "110822.447500", "110824.455000", "110826.465000", "110828.472500", "110830.480000", "110832.487500", "110834.497500", "110836.505000", "110838.512500", "110840.520000", "110842.527500", "110844.537500", "110846.545000", "110848.552500", "110850.560000", "110852.567500", "110854.577500", "110856.585000", "110858.592500", "110900.600000", "110902.610000", "110904.617500", "110906.625000", "110908.632500", "110910.640000", "110912.650000", "110914.657500", "110916.665000", "110918.672500", "110920.680000", "110922.690000", "110924.697500", "110926.705000", "110928.712500", "110930.722500", "110932.730000", "110934.737500", "110936.745000", "110938.752500", "110940.762500", "110942.770000", "110944.777500", "110946.785000", "110948.792500", "110950.802500", "110952.810000", "110954.817500", "110956.825000", "110958.832500", "111000.842500", "111002.850000", "111004.857500", "111006.865000", "111008.875000", "111010.882500", "111012.890000", "111014.897500", "111016.905000", "111018.915000", "111020.922500", "111022.930000", "111024.937500", "111026.945000", "111028.955000", "111030.962500", "111032.970000", "111034.977500", "111036.987500", "111038.995000", "111041.002500", "111043.010000", "111045.017500", "111047.027500", "111049.035000", "111051.042500", "111053.050000", "111055.057500", "111057.067500", "111059.075000", "111101.082500", "111103.090000", "111105.100000", "111107.107500", "111109.115000", "111111.122500", "111113.130000", "111115.140000", "111117.147500", "111119.155000", "111121.162500", "111123.170000", "111125.180000", "111127.187500", "111129.195000", "111131.202500", "111133.210000", "111135.220000", "111137.227500", "111139.235000", "111141.242500", "111143.252500", "111145.260000", "111147.267500", "111149.275000", "111151.282500", "111153.292500", "111155.300000"],
      "ContentTime": ["110458.578000", "110500.562000", "110502.562000", "110504.562000", "110506.562000", "110508.562000", "110510.562000", "110512.562000", "110514.562000", "110516.562000", "110518.562000", "110520.562000", "110522.562000", "110524.562000", "110526.562000", "110528.562000", "110530.562000", "110532.562000", "110534.562000", "110536.562000", "110538.562000", "110540.562000", "110542.562000", "110544.562000", "110546.562000", "110548.562000", "110550.562000", "110552.562000", "110554.562000", "110556.562000", "110558.562000", "110600.562000", "110602.562000", "110604.562000", "110606.562000", "110608.562000", "110610.562000", "110612.562000", "110614.562000", "110616.562000", "110618.562000", "110620.562000", "110622.562000", "110624.562000", "110626.562000", "110628.562000", "110630.562000", "110632.562000", "110634.562000", "110636.562000", "110638.562000", "110640.562000", "110642.562000", "110644.562000", "110646.562000", "110648.562000", "110650.562000", "110652.562000", "110654.562000", "110656.562000", "110658.562000", "110700.562000", "110702.562000", "110704.562000", "110706.562000", "110708.562000", "110710.562000", "110712.562000", "110714.562000", "110716.562000", "110718.562000", "110720.562000", "110723.062000", "110724.562000", "110726.562000", "110728.562000", "110730.562000", "110732.562000", "110734.562000", "110736.562000", "110738.562000", "110740.562000", "110742.562000", "110744.562000", "110746.562000", "110748.562000", "110750.562000", "110752.562000", "110754.562000", "110756.562000", "110758.562000", "110800.562000", "110802.562000", "110804.562000", "110806.562000", "110808.562000", "110810.562000", "110812.562000", "110814.562000", "110816.562000", "110818.562000", "110820.562000", "110822.562000", "110824.562000", "110826.562000", "110828.562000", "110830.562000", "110832.562000", "110834.562000", "110836.562000", "110838.562000", "110840.562000", "110842.562000", "110844.562000", "110846.562000", "110848.562000", "110850.562000", "110852.562000", "110854.562000", "110856.562000", "110858.562000", "110900.562000", "110902.562000", "110904.562000", "110906.562000", "110908.562000", "110910.562000", "110912.562000", "110914.562000", "110916.562000", "110918.562000", "110920.562000", "110922.562000", "110924.562000", "110926.562000", "110928.562000", "110930.562000", "110932.562000", "110934.562000", "110936.562000", "110938.562000", "110940.562000", "110942.562000", "110944.562000", "110946.562000", "110948.562000", "110950.562000", "110952.562000", "110954.562000", "110956.562000", "110958.562000", "111000.562000", "111002.562000", "111004.562000", "111006.562000", "111008.562000", "111010.562000", "111012.562000", "111014.562000", "111016.562000", "111018.562000", "111020.562000", "111022.562000", "111024.562000", "111026.562000", "111028.562000", "111030.562000", "111032.562000", "111034.562000", "111036.562000", "111038.562000", "111040.562000", "111042.562000", "111044.562000", "111046.562000", "111048.562000", "111050.562000", "111052.562000", "111054.562000", "111056.562000", "111058.562000", "111100.562000", "111102.562000", "111104.562000", "111106.562000", "111108.562000", "111110.562000", "111112.562000", "111114.562000", "111116.562000", "111118.562000", "111120.562000", "111122.562000", "111124.562000", "111126.562000", "111128.562000", "111130.562000", "111132.562000", "111134.562000", "111136.562000", "111138.562000", "111140.562000", "111142.562000", "111144.562000", "111146.562000", "111148.562000", "111150.562000", "111152.562000", "111154.562000", "111156.296000"],
      "InstanceCreationTime": ["110458.578000", "110500.562000", "110502.562000", "110504.562000", "110506.562000", "110508.562000", "110510.562000", "110512.562000", "110514.562000", "110516.562000", "110518.562000", "110520.562000", "110522.562000", "110524.562000", "110526.562000", "110528.562000", "110530.562000", "110532.562000", "110534.562000", "110536.562000", "110538.562000", "110540.562000", "110542.562000", "110544.562000", "110546.562000", "110548.562000", "110550.562000", "110552.562000", "110554.562000", "110556.562000", "110558.562000", "110600.562000", "110602.562000", "110604.562000", "110606.562000", "110608.562000", "110610.562000", "110612.562000", "110614.562000", "110616.562000", "110618.562000", "110620.562000", "110622.562000", "110624.562000", "110626.562000", "110628.562000", "110630.562000", "110632.562000", "110634.562000", "110636.562000", "110638.562000", "110640.562000", "110642.562000", "110644.562000", "110646.562000", "110648.562000", "110650.562000", "110652.562000", "110654.562000", "110656.562000", "110658.562000", "110700.562000", "110702.562000", "110704.562000", "110706.562000", "110708.562000", "110710.562000", "110712.562000", "110714.562000", "110716.562000", "110718.562000", "110720.562000", "110723.062000", "110724.562000", "110726.562000", "110728.562000", "110730.562000", "110732.562000", "110734.562000", "110736.562000", "110738.562000", "110740.562000", "110742.562000", "110744.562000", "110746.562000", "110748.562000", "110750.562000", "110752.562000", "110754.562000", "110756.562000", "110758.562000", "110800.562000", "110802.562000", "110804.562000", "110806.562000", "110808.562000", "110810.562000", "110812.562000", "110814.562000", "110816.562000", "110818.562000", "110820.562000", "110822.562000", "110824.562000", "110826.562000", "110828.562000", "110830.562000", "110832.562000", "110834.562000", "110836.562000", "110838.562000", "110840.562000", "110842.562000", "110844.562000", "110846.562000", "110848.562000", "110850.562000", "110852.562000", "110854.562000", "110856.562000", "110858.562000", "110900.562000", "110902.562000", "110904.562000", "110906.562000", "110908.562000", "110910.562000", "110912.562000", "110914.562000", "110916.562000", "110918.562000", "110920.562000", "110922.562000", "110924.562000", "110926.562000", "110928.562000", "110930.562000", "110932.562000", "110934.562000", "110936.562000", "110938.562000", "110940.562000", "110942.562000", "110944.562000", "110946.562000", "110948.562000", "110950.562000", "110952.562000", "110954.562000", "110956.562000", "110958.562000", "111000.562000", "111002.562000", "111004.562000", "111006.562000", "111008.562000", "111010.562000", "111012.562000", "111014.562000", "111016.562000", "111018.562000", "111020.562000", "111022.562000", "111024.562000", "111026.562000", "111028.562000", "111030.562000", "111032.562000", "111034.562000", "111036.562000", "111038.562000", "111040.562000", "111042.562000", "111044.562000", "111046.562000", "111048.562000", "111050.562000", "111052.562000", "111054.562000", "111056.562000", "111058.562000", "111100.562000", "111102.562000", "111104.562000", "111106.562000", "111108.562000", "111110.562000", "111112.562000", "111114.562000", "111116.562000", "111118.562000", "111120.562000", "111122.562000", "111124.562000", "111126.562000", "111128.562000", "111130.562000", "111132.562000", "111134.562000", "111136.562000", "111138.562000", "111140.562000", "111142.562000", "111144.562000", "111146.562000", "111148.562000", "111150.562000", "111152.562000", "111154.562000", "111156.296000"],
      "InstanceNumber": [1, 2, 3, 4, 5, 6, 7, 8, 9, 10, 11, 12, 13, 14, 15, 16, 17, 18, 19, 20, 21, 22, 23, 24, 25, 26, 27, 28, 29, 30, 31, 32, 33, 34, 35, 36, 37, 38, 39, 40, 41, 42, 43, 44, 45, 46, 47, 48, 49, 50, 51, 52, 53, 54, 55, 56, 57, 58, 59, 60, 61, 62, 63, 64, 65, 66, 67, 68, 69, 70, 71, 72, 73, 74, 75, 76, 77, 78, 79, 80, 81, 82, 83, 84, 85, 86, 87, 88, 89, 90, 91, 92, 93, 94, 95, 96, 97, 98, 99, 100, 101, 102, 103, 104, 105, 106, 107, 108, 109, 110, 111, 112, 113, 114, 115, 116, 117, 118, 119, 120, 121, 122, 123, 124, 125, 126, 127, 128, 129, 130, 131, 132, 133, 134, 135, 136, 137, 138, 139, 140, 141, 142, 143, 144, 145, 146, 147, 148, 149, 150, 151, 152, 153, 154, 155, 156, 157, 158, 159, 160, 161, 162, 163, 164, 165, 166, 167, 168, 169, 170, 171, 172, 173, 174, 175, 176, 177, 178, 179, 180, 181, 182, 183, 184, 185, 186, 187, 188, 189, 190, 191, 192, 193, 194, 195, 196, 197, 198, 199, 200, 201, 202, 203, 204, 205, 206, 207, 208, 209, 210],
      "LargestImagePixelValue": [1702, 1645, 1609, 1614, 1612, 1583, 1611, 1615, 1610, 1590, 1589, 1613, 1577, 1595, 1581, 1590, 1559, 1591, 1552, 1584, 1549, 1549, 1537, 1535, 1530, 1547, 1552, 1549, 1575, 1564, 1580, 1551, 1588, 1579, 1579, 1603, 1584, 1739, 1559, 1598, 1556, 1558, 1547, 1746, 1543, 1563, 1551, 1547, 1552, 1559, 1565, 1539, 1535, 1535, 1534, 1546, 1536, 1540, 1540, 1664, 1553, 1584, 1539, 1549, 1571, 1553, 1557, 1541, 1571, 1555, 1561, 1563, 1581, 1560, 1542, 1561, 1547, 1569, 1570, 1612, 1748, 1552, 1597, 1544, 1549, 1664, 1580, 1519, 1515, 1514, 1518, 1531, 1559, 1529, 1538, 1543, 1532, 1599, 1529, 1546, 1553, 1549, 1519, 1528, 1524, 1543, 1556, 1548, 1667, 1542, 1547, 1521, 1526, 1544, 1558, 1564, 1564, 1538, 1535, 1531, 1530, 1543, 1573, 1545, 1532, 1569, 1563, 1559, 1546, 1530, 1554, 1553, 1558, 1548, 1542, 1520, 1537, 1543, 1548, 1598, 1613, 1611, 1549, 1551, 1533, 1528, 1531, 1526, 1604, 1534, 1507, 1518, 1530, 1541, 1507, 1508, 1515, 1521, 1523, 1535, 1551, 1541, 1528, 1526, 1541, 1562, 1541, 1566, 1544, 1549, 1665, 1515, 1540, 1527, 1542, 1530, 1527, 1553, 1550, 1596, 1536, 1526, 1496, 1537, 1554, 1530, 1525, 1511, 1539, 1523, 1516, 1539, 1558, 1543, 1527, 1515, 1545, 1547, 1545, 1514, 1584, 1519, 1527, 1514, 1547, 1539, 1542, 1563, 1556, 1545],
      "WindowCenter": [713.0, 709.0, 709.0, 710.0, 710.0, 710.0, 709.0, 708.0, 709.0, 709.0, 708.0, 707.0, 707.0, 707.0, 707.0, 707.0, 706.0, 706.0, 705.0, 705.0, 705.0, 705.0, 704.0, 704.0, 704.0, 705.0, 706.0, 705.0, 706.0, 706.0, 707.0, 707.0, 707.0, 708.0, 708.0, 708.0, 708.0, 708.0, 707.0, 707.0, 709.0, 708.0, 707.0, 707.0, 705.0, 705.0, 706.0, 706.0, 705.0, 705.0, 704.0, 705.0, 704.0, 704.0, 705.0, 705.0, 705.0, 705.0, 705.0, 707.0, 705.0, 704.0, 704.0, 703.0, 704.0, 704.0, 703.0, 703.0, 704.0, 704.0, 704.0, 706.0, 706.0, 705.0, 704.0, 704.0, 705.0, 706.0, 706.0, 707.0, 708.0, 705.0, 704.0, 706.0, 705.0, 704.0, 702.0, 701.0, 702.0, 703.0, 704.0, 704.0, 704.0, 704.0, 705.0, 705.0, 705.0, 706.0, 706.0, 706.0, 706.0, 706.0, 706.0, 706.0, 707.0, 707.0, 707.0, 706.0, 707.0, 706.0, 706.0, 706.0, 705.0, 705.0, 705.0, 706.0, 706.0, 705.0, 705.0, 706.0, 706.0, 706.0, 707.0, 706.0, 705.0, 706.0, 706.0, 707.0, 706.0, 707.0, 707.0, 708.0, 708.0, 708.0, 707.0, 707.0, 707.0, 708.0, 707.0, 707.0, 706.0, 706.0, 705.0, 706.0, 705.0, 704.0, 706.0, 706.0, 707.0, 706.0, 706.0, 706.0, 706.0, 705.0, 705.0, 705.0, 706.0, 707.0, 708.0, 708.0, 708.0, 707.0, 707.0, 707.0, 707.0, 707.0, 707.0, 708.0, 708.0, 707.0, 708.0, 706.0, 707.0, 707.0, 707.0, 707.0, 707.0, 707.0, 707.0, 707.0, 706.0, 706.0, 706.0, 706.0, 706.0, 707.0, 707.0, 706.0, 706.0, 707.0, 707.0, 707.0, 706.0, 706.0, 706.0, 706.0, 707.0, 707.0, 706.0, 706.0, 706.0, 705.0, 705.0, 706.0, 706.0, 706.0, 705.0, 705.0, 706.0, 706.0],
      "WindowWidth": [1494.0, 1485.0, 1485.0, 1486.0, 1488.0, 1487.0, 1486.0, 1483.0, 1484.0, 1484.0, 1482.0, 1481.0, 1480.0, 1481.0, 1481.0, 1480.0, 1479.0, 1478.0, 1477.0, 1477.0, 1476.0, 1475.0, 1474.0, 1475.0, 1474.0, 1476.0, 1478.0, 1477.0, 1477.0, 1478.0, 1480.0, 1481.0, 1482.0, 1483.0, 1483.0, 1483.0, 1482.0, 1483.0, 1480.0, 1482.0, 1485.0, 1484.0, 1480.0, 1479.0, 1475.0, 1476.0, 1478.0, 1478.0, 1476.0, 1475.0, 1475.0, 1476.0, 1474.0, 1475.0, 1477.0, 1477.0, 1478.0, 1476.0, 1476.0, 1480.0, 1477.0, 1473.0, 1473.0, 1473.0, 1474.0, 1473.0, 1473.0, 1472.0, 1474.0, 1475.0, 1475.0, 1478.0, 1478.0, 1475.0, 1475.0, 1475.0, 1477.0, 1478.0, 1479.0, 1480.0, 1482.0, 1476.0, 1475.0, 1478.0, 1476.0, 1473.0, 1468.0, 1467.0, 1469.0, 1473.0, 1474.0, 1473.0, 1474.0, 1474.0, 1476.0, 1477.0, 1477.0, 1479.0, 1478.0, 1479.0, 1478.0, 1478.0, 1479.0, 1479.0, 1482.0, 1482.0, 1481.0, 1479.0, 1480.0, 1479.0, 1479.0, 1479.0, 1477.0, 1476.0, 1477.0, 1478.0, 1478.0, 1476.0, 1475.0, 1478.0, 1478.0, 1480.0, 1481.0, 1479.0, 1476.0, 1478.0, 1478.0, 1481.0, 1479.0, 1480.0, 1480.0, 1483.0, 1483.0, 1483.0, 1481.0, 1480.0, 1480.0, 1482.0, 1482.0, 1482.0, 1480.0, 1478.0, 1477.0, 1478.0, 1477.0, 1474.0, 1479.0, 1479.0, 1481.0, 1479.0, 1478.0, 1478.0, 1479.0, 1477.0, 1476.0, 1476.0, 1479.0, 1481.0, 1485.0, 1484.0, 1483.0, 1481.0, 1480.0, 1480.0, 1481.0, 1481.0, 1482.0, 1483.0, 1483.0, 1481.0, 1482.0, 1479.0, 1480.0, 1481.0, 1481.0, 1482.0, 1480.0, 1480.0, 1481.0, 1481.0, 1479.0, 1478.0, 1478.0, 1478.0, 1480.0, 1481.0, 1480.0, 1479.0, 1478.0, 1480.0, 1481.0, 1480.0, 1480.0, 1480.0, 1479.0, 1479.0, 1480.0, 1480.0, 1479.0, 1479.0, 1478.0, 1476.0, 1477.0, 1478.0, 1478.0, 1477.0, 1476.0, 1477.0, 1479.0, 1479.0]
    },
    "slices": {}
  }
}