{
  "AcquisitionMatrixPE": 64,
  "AcquisitionNumber": 1,
  "AcquisitionTime": "10:34:40.695000",
  "BandwidthPerPixelPhaseEncode": 30.637,
  "BaseResolution": 64,
  "BidsGuess": [
    "func",
    "_acq-epfid2_dir-AP_run-5_bold"
],
  "CoilCombinationMethod": "Sum of Squares",
  "CoilString": "C:HEA;HEP",
  "ConversionSoftware": "dcm2niix",
  "ConversionSoftwareVersion": "v1.0.20240202",
  "DerivedVendorReportedEchoSpacing": 0.000510004,
  "DeviceSerialNumber": "35119",
  "DwellTime": 3.5e-06,
  "EchoTime": 0.03,
  "EffectiveEchoSpacing": 0.000510004,
  "FlipAngle": 78,
  "HeudiconvVersion": "1.1.6",
  "ImageComments": "V",
  "ImageOrientationPatientDICOM": [0.999852, -0.007648, -0.0154, 0, 0.895641, -0.444778],
  "ImageOrientationText": "Tra>Cor(-26.4)>Sag(-1.0)",
  "ImageType": [
    "ORIGINAL",
    "PRIMARY",
    "M",
    "ND",
    "MOSAIC"
],
  "ImagingFrequency": 123.251782,
  "InPlanePhaseEncodingDirectionDICOM": "COL",
  "InstitutionAddress": "Chaucer Road  15,Cambridge,UK,GB,CB2 2EF",
  "InstitutionName": "MRC-CBU",
  "MRAcquisitionType": "2D",
  "MagneticFieldStrength": 3,
  "Manufacturer": "Siemens",
  "ManufacturersModelName": "TrioTim",
  "MatrixCoilMode": "SENSE",
  "Modality": "MR",
  "NonlinearGradientCorrection": false,
  "PartialFourier": 1,
  "PatientPosition": "HFS",
  "PercentPhaseFOV": 100,
  "PercentSampling": 100,
  "PhaseEncodingDirection": "j-",
  "PhaseEncodingSteps": 64,
  "PhaseResolution": 1,
  "PixelBandwidth": 2230,
  "ProcedureStepDescription": "CBU^Neuroimaging",
  "ProtocolName": "CBU_DWEPI_BOLD210",
  "PulseSequenceDetails": "%SiemensSeq%\\ep2d_bold",
  "ReceiveCoilName": "HeadMatrix",
  "ReconMatrixPE": 64,
  "RepetitionTime": 2,
  "SAR": 0.133899,
  "ScanOptions": "FS",
  "ScanningSequence": "EP",
  "SequenceName": "*epfid2d1_64",
  "SequenceVariant": "SK",
  "SeriesDescription": "CBU_DWEPI_BOLD210",
  "SeriesNumber": 5,
  "ShimSetting": [-7835, -8808, -2091, 857, 221, -152, -163, 88],
  "SliceThickness": 3,
  "SliceTiming": [0, 1.035, 0.0625, 1.095, 0.1225, 1.1575, 0.1825, 1.2175, 0.245, 1.2775, 0.305, 1.34, 0.365, 1.4, 0.4275, 1.46, 0.4875, 1.5225, 0.5475, 1.5825, 0.61, 1.6425, 0.67, 1.705, 0.73, 1.765, 0.7925, 1.825, 0.8525, 1.8875, 0.9125, 1.9475, 0.975],
  "SoftwareVersions": "syngo MR B15",
  "SpacingBetweenSlices": 3.75,
  "StationName": "MRC35119",
  "TaskName": "faceprocessing",
  "TotalReadoutTime": 0.0321303,
  "TxRefAmp": 327.749,
  "dcmmeta_affine": [
    [-2.999556064605713, 0.0, -0.06447950005531311, 92.73761749267578],
    [0.022943999618291855, 2.686923027038574, -1.6676706075668335, -52.4483528137207],
    [-0.04619999974966049, 1.3343340158462524, 3.358156681060791, -99.290283203125],
    [0.0, 0.0, 0.0, 1.0]
],
  "dcmmeta_reorient_transform": [
    [0.0, -1.0, 0.0, 63.0],
    [1.0, 0.0, 0.0, 0.0],
    [0.0, 0.0, 1.0, 0.0],
    [0.0, 0.0, 0.0, 1.0]
],
  "dcmmeta_shape": [64, 64, 33, 210],
  "dcmmeta_slice_dim": 2,
  "dcmmeta_version": 0.6,
  "global": {
    "const": {
      "AcquisitionMatrix": [64, 0, 0, 64],
      "AngioFlag": "N",
      "BitsAllocated": 16,
      "BitsStored": 12,
      "Columns": 384,
      "EchoNumbers": 1,
      "EchoTime": 30.0,
      "EchoTrainLength": 1,
      "FlipAngle": 78.0,
      "HighBit": 11,
      "ImageOrientationPatient": [0.999852, -0.007648, -0.0154, -0.0, 0.895641, -0.444778],
      "ImagePositionPatient": [-572.666574, -543.064435, 205.658198],
      "ImageType": [
        "ORIGINAL",
        "PRIMARY",
        "M",
        "ND",
        "MOSAIC"
],
      "ImagedNucleus": "1H",
      "ImagingFrequency": 123.251782,
      "InPlanePhaseEncodingDirection": "COL",
      "MRAcquisitionType": "2D",
      "MagneticFieldStrength": 3.0,
      "Manufacturer": "SIEMENS",
      "ManufacturerModelName": "TrioTim",
      "Modality": "MR",
      "NumberOfAverages": 1.0,
      "NumberOfPhaseEncodingSteps": 64,
      "PercentPhaseFieldOfView": 100.0,
      "PercentSampling": 100.0,
      "PerformedProcedureStepStartTime": "095652.046000",
      "PhotometricInterpretation": "MONOCHROME2",
      "PixelAspectRatio": [1, 1],
      "PixelBandwidth": 2230.0,
      "PixelRepresentation": 0,
      "PixelSpacing": [3.0, 3.0],
      "ProtocolName": "CBU_DWEPI_BOLD210",
      "RepetitionTime": 2000.0,
      "Rows": 384,
      "SAR": 0.133899,
      "SamplesPerPixel": 1,
      "ScanOptions": "FS",
      "ScanningSequence": "EP",
      "SequenceName": "*epfid2d1_64",
      "SequenceVariant": "SK",
      "SeriesDescription": "CBU_DWEPI_BOLD210",
      "SeriesNumber": 5,
      "SeriesTime": "103443.296000",
      "SliceLocation": -67.185516,
      "SliceThickness": 3.0,
      "SmallestImagePixelValue": 0,
      "SoftwareVersions": "syngo MR B15",
      "SpacingBetweenSlices": 3.75,
      "SpecificCharacterSet": "ISO_IR 100",
      "StudyID": "1",
      "StudyTime": "095651.859000",
      "TransmitCoilName": "Body",
      "VariableFlipAngleFlag": "N",
      "WindowCenterWidthExplanation": "Algo1",
      "dBdt": 0.0},
    "slices": {}
  },
  "time": {
    "samples": {
      "AcquisitionNumber": [1, 2, 3, 4, 5, 6, 7, 8, 9, 10, 11, 12, 13, 14, 15, 16, 17, 18, 19, 20, 21, 22, 23, 24, 25, 26, 27, 28, 29, 30, 31, 32, 33, 34, 35, 36, 37, 38, 39, 40, 41, 42, 43, 44, 45, 46, 47, 48, 49, 50, 51, 52, 53, 54, 55, 56, 57, 58, 59, 60, 61, 62, 63, 64, 65, 66, 67, 68, 69, 70, 71, 72, 73, 74, 75, 76, 77, 78, 79, 80, 81, 82, 83, 84, 85, 86, 87, 88, 89, 90, 91, 92, 93, 94, 95, 96, 97, 98, 99, 100, 101, 102, 103, 104, 105, 106, 107, 108, 109, 110, 111, 112, 113, 114, 115, 116, 117, 118, 119, 120, 121, 122, 123, 124, 125, 126, 127, 128, 129, 130, 131, 132, 133, 134, 135, 136, 137, 138, 139, 140, 141, 142, 143, 144, 145, 146, 147, 148, 149, 150, 151, 152, 153, 154, 155, 156, 157, 158, 159, 160, 161, 162, 163, 164, 165, 166, 167, 168, 169, 170, 171, 172, 173, 174, 175, 176, 177, 178, 179, 180, 181, 182, 183, 184, 185, 186, 187, 188, 189, 190, 191, 192, 193, 194, 195, 196, 197, 198, 199, 200, 201, 202, 203, 204, 205, 206, 207, 208, 209, 210],
      "AcquisitionTime": ["103440.695000", "103442.705000", "103444.712500", "103446.720000", "103448.727500", "103450.735000", "103452.745000", "103454.752500", "103456.760000", "103458.767500", "103500.775000", "103502.785000", "103504.792500", "103506.800000", "103508.807500", "103510.815000", "103512.825000", "103514.832500", "103516.840000", "103518.847500", "103520.857500", "103522.865000", "103524.872500", "103526.880000", "103528.887500", "103530.897500", "103532.905000", "103534.912500", "103536.920000", "103538.927500", "103540.937500", "103542.945000", "103544.952500", "103546.960000", "103548.970000", "103550.977500", "103552.985000", "103554.992500", "103557.000000", "103559.010000", "103601.017500", "103603.025000", "103605.032500", "103607.040000", "103609.050000", "103611.057500", "103613.065000", "103615.072500", "103617.082500", "103619.090000", "103621.097500", "103623.105000", "103625.112500", "103627.122500", "103629.130000", "103631.137500", "103633.145000", "103635.152500", "103637.162500", "103639.170000", "103641.177500", "103643.185000", "103645.192500", "103647.202500", "103649.210000", "103651.217500", "103653.225000", "103655.235000", "103657.242500", "103659.250000", "103701.257500", "103703.265000", "103705.275000", "103707.282500", "103709.290000", "103711.297500", "103713.305000", "103715.315000", "103717.322500", "103719.330000", "103721.337500", "103723.347500", "103725.355000", "103727.362500", "103729.370000", "103731.377500", "103733.387500", "103735.395000", "103737.402500", "103739.410000", "103741.417500", "103743.427500", "103745.435000", "103747.442500", "103749.450000", "103751.460000", "103753.467500", "103755.475000", "103757.482500", "103759.490000", "103801.500000", "103803.507500", "103805.515000", "103807.522500", "103809.530000", "103811.540000", "103813.547500", "103815.555000", "103817.562500", "103819.570000", "103821.580000", "103823.587500", "103825.595000", "103827.602500", "103829.612500", "103831.620000", "103833.627500", "103835.635000", "103837.642500", "103839.652500", "103841.660000", "103843.667500", "103845.675000", "103847.682500", "103849.692500", "103851.700000", "103853.707500", "103855.715000", "103857.725000", "103859.732500", "103901.740000", "103903.747500", "103905.755000", "103907.765000", "103909.772500", "103911.780000", "103913.787500", "103915.795000", "103917.805000", "103919.812500", "103921.820000", "103923.827500", "103925.837500", "103927.845000", "103929.852500", "103931.860000", "103933.867500", "103935.877500", "103937.885000", "103939.892500", "103941.900000", "103943.907500", "103945.917500", "103947.925000", "103949.932500", "103951.940000", "103953.947500", "103955.957500", "103957.965000", "103959.972500", "104001.980000", "104003.990000", "104005.997500", "104008.005000", "104010.012500", "104012.020000", "104014.030000", "104016.037500", "104018.045000", "104020.052500", "104022.060000", "104024.070000", "104026.077500", "104028.085000", "104030.092500", "104032.102500", "104034.110000", "104036.117500", "104038.125000", "104040.132500", "104042.142500", "104044.150000", "104046.157500", "104048.165000", "104050.172500", "104052.182500", "104054.190000", "104056.197500", "104058.205000", "104100.215000", "104102.222500", "104104.230000", "104106.237500", "104108.245000", "104110.255000", "104112.262500", "104114.270000", "104116.277500", "104118.285000", "104120.295000", "104122.302500", "104124.310000", "104126.317500", "104128.327500", "104130.335000", "104132.342500", "104134.350000", "104136.357500", "104138.367500", "104140.375000"],
      "ContentTime": ["103443.296000", "103445.281000", "103447.281000", "103449.281000", "103451.281000", "103453.281000", "103455.281000", "103457.281000", "103459.281000", "103501.281000", "103503.281000", "103505.281000", "103507.281000", "103509.281000", "103511.281000", "103513.281000", "103515.781000", "103517.281000", "103519.281000", "103521.281000", "103523.281000", "103525.281000", "103527.281000", "103529.281000", "103531.781000", "103533.281000", "103535.281000", "103537.281000", "103539.281000", "103541.781000", "103543.281000", "103545.281000", "103547.781000", "103549.281000", "103551.281000", "103553.281000", "103555.281000", "103557.281000", "103559.281000", "103601.281000", "103603.781000", "103605.281000", "103607.281000", "103609.281000", "103611.281000", "103613.281000", "103615.281000", "103617.281000", "103619.781000", "103621.281000", "103623.281000", "103625.281000", "103627.281000", "103629.781000", "103631.281000", "103633.281000", "103635.781000", "103637.281000", "103639.281000", "103641.281000", "103643.281000", "103645.281000", "103647.281000", "103649.281000", "103651.781000", "103653.281000", "103655.281000", "103657.281000", "103659.281000", "103701.281000", "103703.281000", "103705.281000", "103707.781000", "103709.281000", "103711.281000", "103713.281000", "103715.281000", "103717.281000", "103719.281000", "103721.281000", "103723.781000", "103725.281000", "103727.281000", "103729.281000", "103731.281000", "103733.281000", "103735.281000", "103737.281000", "103739.281000", "103741.281000", "103743.281000", "103745.281000", "103747.281000", "103749.281000", "103751.281000", "103753.281000", "103755.781000", "103757.281000", "103759.281000", "103801.281000", "103803.281000", "103805.281000", "103807.281000", "103809.281000", "103811.781000", "103813.281000", "103815.281000", "103817.781000", "103819.281000", "103821.281000", "103823.296000", "103825.281000", "103827.781000", "103829.281000", "103831.281000", "103833.296000", "103835.281000", "103837.281000", "103839.281000", "103841.281000", "103843.781000", "103845.281000", "103847.281000", "103849.296000", "103851.281000", "103853.281000", "103855.281000", "103857.281000", "103859.781000", "103901.281000", "103903.281000", "103905.281000", "103907.281000", "103909.281000", "103911.281000", "103913.281000", "103915.781000", "103917.281000", "103919.281000", "103921.281000", "103923.281000", "103925.281000", "103927.281000", "103929.281000", "103931.781000", "103933.281000", "103935.281000", "103937.281000", "103939.281000", "103941.281000", "103943.281000", "103945.281000", "103947.781000", "103949.296000", "103951.281000", "103953.281000", "103955.281000", "103957.281000", "103959.281000", "104001.281000", "104003.781000", "104005.781000", "104007.281000", "104009.781000", "104011.296000", "104013.281000", "104015.281000", "104017.281000", "104019.781000", "104021.281000", "104023.281000", "104025.296000", "104027.281000", "104029.281000", "104031.281000", "104033.281000", "104035.781000", "104037.281000", "104039.281000", "104041.281000", "104043.281000", "104045.281000", "104047.281000", "104049.296000", "104051.796000", "104053.296000", "104055.281000", "104057.281000", "104059.781000", "104101.281000", "104103.281000", "104105.281000", "104107.781000", "104109.281000", "104111.281000", "104113.281000", "104115.281000", "104117.281000", "104119.281000", "104121.281000", "104123.781000", "104125.281000", "104127.281000", "104129.781000", "104131.281000", "104133.281000", "104135.281000", "104137.281000", "104139.781000", "104141.218000"],
      "InstanceCreationTime": ["103443.296000", "103445.281000", "103447.281000", "103449.281000", "103451.281000", "103453.281000", "103455.281000", "103457.281000", "103459.281000", "103501.281000", "103503.281000", "103505.281000", "103507.281000", "103509.281000", "103511.281000", "103513.281000", "103515.781000", "103517.281000", "103519.281000", "103521.281000", "103523.281000", "103525.281000", "103527.281000", "103529.281000", "103531.781000", "103533.281000", "103535.281000", "103537.281000", "103539.281000", "103541.781000", "103543.281000", "103545.281000", "103547.781000", "103549.281000", "103551.281000", "103553.281000", "103555.281000", "103557.281000", "103559.281000", "103601.281000", "103603.781000", "103605.281000", "103607.281000", "103609.281000", "103611.281000", "103613.281000", "103615.281000", "103617.281000", "103619.781000", "103621.281000", "103623.281000", "103625.281000", "103627.281000", "103629.781000", "103631.281000", "103633.281000", "103635.781000", "103637.281000", "103639.281000", "103641.281000", "103643.281000", "103645.281000", "103647.281000", "103649.281000", "103651.781000", "103653.281000", "103655.281000", "103657.281000", "103659.281000", "103701.281000", "103703.281000", "103705.281000", "103707.781000", "103709.281000", "103711.281000", "103713.281000", "103715.281000", "103717.281000", "103719.281000", "103721.281000", "103723.781000", "103725.281000", "103727.281000", "103729.281000", "103731.281000", "103733.281000", "103735.281000", "103737.281000", "103739.281000", "103741.281000", "103743.281000", "103745.281000", "103747.281000", "103749.281000", "103751.281000", "103753.281000", "103755.781000", "103757.281000", "103759.281000", "103801.281000", "103803.281000", "103805.281000", "103807.281000", "103809.281000", "103811.781000", "103813.281000", "103815.281000", "103817.781000", "103819.281000", "103821.281000", "103823.296000", "103825.281000", "103827.781000", "103829.281000", "103831.281000", "103833.296000", "103835.281000", "103837.281000", "103839.281000", "103841.281000", "103843.781000", "103845.281000", "103847.281000", "103849.296000", "103851.281000", "103853.281000", "103855.281000", "103857.281000", "103859.781000", "103901.281000", "103903.281000", "103905.281000", "103907.281000", "103909.281000", "103911.281000", "103913.281000", "103915.781000", "103917.281000", "103919.281000", "103921.281000", "103923.281000", "103925.281000", "103927.281000", "103929.281000", "103931.781000", "103933.281000", "103935.281000", "103937.281000", "103939.281000", "103941.281000", "103943.281000", "103945.281000", "103947.781000", "103949.296000", "103951.281000", "103953.281000", "103955.281000", "103957.281000", "103959.281000", "104001.281000", "104003.781000", "104005.781000", "104007.281000", "104009.781000", "104011.296000", "104013.281000", "104015.281000", "104017.281000", "104019.781000", "104021.281000", "104023.281000", "104025.296000", "104027.281000", "104029.281000", "104031.281000", "104033.281000", "104035.781000", "104037.281000", "104039.281000", "104041.281000", "104043.281000", "104045.281000", "104047.281000", "104049.296000", "104051.796000", "104053.296000", "104055.281000", "104057.281000", "104059.781000", "104101.281000", "104103.281000", "104105.281000", "104107.781000", "104109.281000", "104111.281000", "104113.281000", "104115.281000", "104117.281000", "104119.281000", "104121.281000", "104123.781000", "104125.281000", "104127.281000", "104129.781000", "104131.281000", "104133.281000", "104135.281000", "104137.281000", "104139.781000", "104141.218000"],
      "InstanceNumber": [1, 2, 3, 4, 5, 6, 7, 8, 9, 10, 11, 12, 13, 14, 15, 16, 17, 18, 19, 20, 21, 22, 23, 24, 25, 26, 27, 28, 29, 30, 31, 32, 33, 34, 35, 36, 37, 38, 39, 40, 41, 42, 43, 44, 45, 46, 47, 48, 49, 50, 51, 52, 53, 54, 55, 56, 57, 58, 59, 60, 61, 62, 63, 64, 65, 66, 67, 68, 69, 70, 71, 72, 73, 74, 75, 76, 77, 78, 79, 80, 81, 82, 83, 84, 85, 86, 87, 88, 89, 90, 91, 92, 93, 94, 95, 96, 97, 98, 99, 100, 101, 102, 103, 104, 105, 106, 107, 108, 109, 110, 111, 112, 113, 114, 115, 116, 117, 118, 119, 120, 121, 122, 123, 124, 125, 126, 127, 128, 129, 130, 131, 132, 133, 134, 135, 136, 137, 138, 139, 140, 141, 142, 143, 144, 145, 146, 147, 148, 149, 150, 151, 152, 153, 154, 155, 156, 157, 158, 159, 160, 161, 162, 163, 164, 165, 166, 167, 168, 169, 170, 171, 172, 173, 174, 175, 176, 177, 178, 179, 180, 181, 182, 183, 184, 185, 186, 187, 188, 189, 190, 191, 192, 193, 194, 195, 196, 197, 198, 199, 200, 201, 202, 203, 204, 205, 206, 207, 208, 209, 210],
      "LargestImagePixelValue": [1815, 1754, 1726, 1715, 1721, 1721, 1700, 1711, 1716, 1714, 1728, 1712, 1711, 1723, 1725, 1724, 1704, 1699, 1704, 1701, 1722, 1727, 1709, 1725, 1705, 1727, 1730, 1738, 1721, 1698, 1718, 1701, 1720, 1724, 1710, 1715, 1710, 1716, 1717, 1728, 1712, 1722, 1717, 1714, 1717, 1726, 1709, 1715, 1721, 1716, 1713, 1718, 1726, 1709, 1721, 1704, 1735, 1712, 1706, 1722, 1712, 1718, 1714, 1711, 1706, 1693, 1709, 1732, 1712, 1694, 1679, 1727, 1719, 1717, 1704, 1724, 1698, 1714, 1703, 1697, 1719, 1732, 1705, 1720, 1705, 1721, 1723, 1719, 1705, 1711, 1708, 1720, 1706, 1705, 1711, 1711, 1710, 1714, 1718, 1704, 1716, 1708, 1695, 1697, 1704, 1692, 1719, 1716, 1702, 1714, 1698, 1699, 1703, 1699, 1701, 1703, 1703, 1723, 1713, 1726, 1720, 1718, 1705, 1727, 1719, 1706, 1727, 1723, 1722, 1717, 1730, 1720, 1730, 1742, 1734, 1716, 1710, 1725, 1749, 1719, 1723, 1740, 1728, 1723, 1743, 1733, 1740, 1718, 1734, 1730, 1719, 1726, 1728, 1724, 1742, 1724, 1729, 1742, 1738, 1734, 1721, 1728, 1728, 1735, 1736, 1735, 1722, 1739, 1724, 1713, 1732, 1735, 1733, 1731, 1726, 1747, 1735, 1746, 1732, 1730, 1722, 1734, 1711, 1750, 1742, 1713, 1709, 1713, 1709, 1715, 1707, 1712, 1717, 1710, 1715, 1719, 1720, 1703, 1704, 1721, 1726, 1730, 1713, 1707, 1728, 1724, 1735, 1732, 1732, 1725],
      "WindowCenter": [706.0, 703.0, 701.0, 701.0, 700.0, 701.0, 701.0, 701.0, 701.0, 701.0, 701.0, 701.0, 700.0, 699.0, 697.0, 698.0, 698.0, 698.0, 698.0, 699.0, 699.0, 698.0, 698.0, 698.0, 699.0, 699.0, 699.0, 699.0, 699.0, 698.0, 699.0, 699.0, 700.0, 700.0, 700.0, 699.0, 701.0, 700.0, 700.0, 699.0, 699.0, 699.0, 699.0, 699.0, 700.0, 700.0, 700.0, 700.0, 700.0, 699.0, 699.0, 699.0, 699.0, 699.0, 699.0, 698.0, 699.0, 699.0, 699.0, 699.0, 700.0, 700.0, 700.0, 699.0, 699.0, 699.0, 699.0, 700.0, 700.0, 702.0, 702.0, 703.0, 701.0, 700.0, 699.0, 698.0, 697.0, 697.0, 698.0, 699.0, 700.0, 701.0, 701.0, 701.0, 701.0, 702.0, 702.0, 702.0, 701.0, 701.0, 700.0, 700.0, 701.0, 701.0, 700.0, 700.0, 700.0, 700.0, 702.0, 705.0, 704.0, 703.0, 702.0, 700.0, 698.0, 699.0, 700.0, 701.0, 703.0, 703.0, 703.0, 702.0, 702.0, 703.0, 703.0, 703.0, 702.0, 702.0, 702.0, 702.0, 703.0, 704.0, 703.0, 702.0, 701.0, 702.0, 702.0, 702.0, 702.0, 701.0, 701.0, 701.0, 701.0, 701.0, 700.0, 700.0, 702.0, 702.0, 701.0, 700.0, 700.0, 700.0, 700.0, 700.0, 701.0, 701.0, 702.0, 702.0, 702.0, 702.0, 702.0, 702.0, 702.0, 702.0, 702.0, 702.0, 702.0, 702.0, 702.0, 702.0, 701.0, 701.0, 701.0, 701.0, 701.0, 702.0, 702.0, 702.0, 702.0, 702.0, 701.0, 702.0, 701.0, 701.0, 701.0, 702.0, 703.0, 702.0, 701.0, 700.0, 700.0, 700.0, 702.0, 703.0, 702.0, 702.0, 701.0, 699.0, 697.0, 697.0, 699.0, 701.0, 701.0, 701.0, 701.0, 700.0, 701.0, 701.0, 701.0, 701.0, 701.0, 701.0, 701.0, 701.0, 702.0, 703.0, 703.0, 702.0, 702.0, 702.0],
      "WindowWidth": [1479.0, 1470.0, 1467.0, 1466.0, 1465.0, 1466.0, 1466.0, 1466.0, 1467.0, 1467.0, 1467.0, 1466.0, 1464.0, 1462.0, 1458.0, 1460.0, 1459.0, 1461.0, 1461.0, 1461.0, 1462.0, 1460.0, 1459.0, 1461.0, 1462.0, 1461.0, 1461.0, 1461.0, 1461.0, 1461.0, 1462.0, 1462.0, 1463.0, 1463.0, 1464.0, 1463.0, 1466.0, 1465.0, 1463.0, 1462.0, 1461.0, 1462.0, 1462.0, 1463.0, 1464.0, 1465.0, 1465.0, 1465.0, 1465.0, 1462.0, 1462.0, 1462.0, 1463.0, 1463.0, 1461.0, 1460.0, 1462.0, 1462.0, 1462.0, 1462.0, 1463.0, 1465.0, 1465.0, 1463.0, 1462.0, 1462.0, 1462.0, 1463.0, 1464.0, 1469.0, 1470.0, 1471.0, 1467.0, 1464.0, 1462.0, 1460.0, 1457.0, 1457.0, 1459.0, 1462.0, 1463.0, 1466.0, 1467.0, 1467.0, 1466.0, 1469.0, 1469.0, 1468.0, 1467.0, 1466.0, 1465.0, 1465.0, 1466.0, 1466.0, 1465.0, 1465.0, 1465.0, 1466.0, 1468.0, 1476.0, 1473.0, 1470.0, 1468.0, 1463.0, 1459.0, 1461.0, 1465.0, 1467.0, 1470.0, 1471.0, 1470.0, 1469.0, 1470.0, 1470.0, 1471.0, 1470.0, 1468.0, 1469.0, 1470.0, 1469.0, 1472.0, 1472.0, 1471.0, 1468.0, 1468.0, 1468.0, 1468.0, 1469.0, 1469.0, 1468.0, 1466.0, 1466.0, 1467.0, 1467.0, 1465.0, 1465.0, 1469.0, 1468.0, 1467.0, 1464.0, 1464.0, 1464.0, 1465.0, 1465.0, 1466.0, 1468.0, 1469.0, 1468.0, 1470.0, 1470.0, 1470.0, 1470.0, 1470.0, 1468.0, 1468.0, 1468.0, 1469.0, 1469.0, 1468.0, 1469.0, 1467.0, 1466.0, 1466.0, 1466.0, 1466.0, 1468.0, 1468.0, 1470.0, 1469.0, 1469.0, 1468.0, 1468.0, 1468.0, 1467.0, 1467.0, 1469.0, 1471.0, 1469.0, 1467.0, 1466.0, 1464.0, 1465.0, 1470.0, 1472.0, 1468.0, 1469.0, 1466.0, 1461.0, 1458.0, 1458.0, 1462.0, 1466.0, 1467.0, 1466.0, 1466.0, 1465.0, 1466.0, 1466.0, 1467.0, 1467.0, 1468.0, 1467.0, 1467.0, 1467.0, 1470.0, 1472.0, 1472.0, 1469.0, 1468.0, 1469.0]
    },
    "slices": {}
  }
}