{
  "AcquisitionMatrixPE": 64,
  "AcquisitionNumber": 1,
  "AcquisitionTime": "12:39:52.095000",
  "BandwidthPerPixelPhaseEncode": 30.637,
  "BaseResolution": 64,
  "BidsGuess": [
    "func",
    "_acq-epfid2_dir-AP_run-8_bold"
],
  "CoilCombinationMethod": "Sum of Squares",
  "CoilString": "C:HEA;HEP",
  "ConversionSoftware": "dcm2niix",
  "ConversionSoftwareVersion": "v1.0.20240202",
  "DerivedVendorReportedEchoSpacing": 0.000510004,
  "DeviceSerialNumber": "35119",
  "DwellTime": 3.5e-06,
  "EchoTime": 0.03,
  "EffectiveEchoSpacing": 0.000510004,
  "FlipAngle": 78,
  "HeudiconvVersion": "1.1.6",
  "ImageComments": "V",
  "ImageOrientationPatientDICOM": [1, 0, 0, 0, 0.904083, -0.427358],
  "ImageOrientationText": "Tra>Cor(-25.3)",
  "ImageType": [
    "ORIGINAL",
    "PRIMARY",
    "M",
    "ND",
    "MOSAIC"
],
  "ImagingFrequency": 123.251948,
  "InPlanePhaseEncodingDirectionDICOM": "COL",
  "InstitutionAddress": "Chaucer Road  15,Cambridge,UK,GB,CB2 2EF",
  "InstitutionName": "MRC-CBU",
  "MRAcquisitionType": "2D",
  "MagneticFieldStrength": 3,
  "Manufacturer": "Siemens",
  "ManufacturersModelName": "TrioTim",
  "MatrixCoilMode": "SENSE",
  "Modality": "MR",
  "NonlinearGradientCorrection": false,
  "PartialFourier": 1,
  "PatientPosition": "HFS",
  "PercentPhaseFOV": 100,
  "PercentSampling": 100,
  "PhaseEncodingDirection": "j-",
  "PhaseEncodingSteps": 64,
  "PhaseResolution": 1,
  "PixelBandwidth": 2230,
  "ProcedureStepDescription": "CBU^Neuroimaging",
  "ProtocolName": "CBU_DWEPI_BOLD210",
  "PulseSequenceDetails": "%SiemensSeq%\\ep2d_bold",
  "ReceiveCoilName": "HeadMatrix",
  "ReconMatrixPE": 64,
  "RepetitionTime": 2,
  "SAR": 0.141777,
  "ScanOptions": "FS",
  "ScanningSequence": "EP",
  "SequenceName": "*epfid2d1_64",
  "SequenceVariant": "SK",
  "SeriesDescription": "CBU_DWEPI_BOLD210",
  "SeriesNumber": 8,
  "ShimSetting": [-7779, -8837, -2256, 687, 190, -7, -8, 38],
  "SliceThickness": 3,
  "SliceTiming": [0, 1.0325, 0.06, 1.095, 0.12, 1.155, 0.1825, 1.215, 0.2425, 1.2775, 0.3025, 1.3375, 0.365, 1.3975, 0.425, 1.46, 0.485, 1.52, 0.5475, 1.58, 0.6075, 1.6425, 0.6675, 1.7025, 0.73, 1.7625, 0.79, 1.825, 0.85, 1.885, 0.9125, 1.945, 0.9725],
  "SoftwareVersions": "syngo MR B15",
  "SpacingBetweenSlices": 3.75,
  "StationName": "MRC35119",
  "TaskName": "faceprocessing",
  "TotalReadoutTime": 0.0321303,
  "TxRefAmp": 317.273,
  "dcmmeta_affine": [
    [-3.0, 0.0, 0.0, 98.53389739990234],
    [0.0, 2.7122490406036377, -1.6025924682617188, -51.0002555847168],
    [0.0, 1.282073974609375, 3.3903112411499023, -82.27018737792969],
    [0.0, 0.0, 0.0, 1.0]
],
  "dcmmeta_reorient_transform": [
    [0.0, -1.0, 0.0, 63.0],
    [1.0, 0.0, 0.0, 0.0],
    [0.0, 0.0, 1.0, 0.0],
    [0.0, 0.0, 0.0, 1.0]
],
  "dcmmeta_shape": [64, 64, 33, 210],
  "dcmmeta_slice_dim": 2,
  "dcmmeta_version": 0.6,
  "global": {
    "const": {
      "AcquisitionMatrix": [64, 0, 0, 64],
      "AngioFlag": "N",
      "BitsAllocated": 16,
      "BitsStored": 12,
      "Columns": 384,
      "EchoNumbers": 1,
      "EchoTime": 30.0,
      "EchoTrainLength": 1,
      "FlipAngle": 78.0,
      "HighBit": 11,
      "ImageOrientationPatient": [1.0, 0.0, 0.0, 0.0, 0.904083, -0.427358],
      "ImagePositionPatient": [-578.533898, -553.831271, 203.632315],
      "ImageType": [
        "ORIGINAL",
        "PRIMARY",
        "M",
        "ND",
        "MOSAIC"
],
      "ImagedNucleus": "1H",
      "ImagingFrequency": 123.251948,
      "InPlanePhaseEncodingDirection": "COL",
      "MRAcquisitionType": "2D",
      "MagneticFieldStrength": 3.0,
      "Manufacturer": "SIEMENS",
      "ManufacturerModelName": "TrioTim",
      "Modality": "MR",
      "NumberOfAverages": 1.0,
      "NumberOfPhaseEncodingSteps": 64,
      "PercentPhaseFieldOfView": 100.0,
      "PercentSampling": 100.0,
      "PerformedProcedureStepStartTime": "115356.140000",
      "PhotometricInterpretation": "MONOCHROME2",
      "PixelAspectRatio": [1, 1],
      "PixelBandwidth": 2230.0,
      "PixelRepresentation": 0,
      "PixelSpacing": [3.0, 3.0],
      "ProtocolName": "CBU_DWEPI_BOLD210",
      "RepetitionTime": 2000.0,
      "Rows": 384,
      "SAR": 0.141777,
      "SamplesPerPixel": 1,
      "ScanOptions": "FS",
      "ScanningSequence": "EP",
      "SequenceName": "*epfid2d1_64",
      "SequenceVariant": "SK",
      "SeriesDescription": "CBU_DWEPI_BOLD210",
      "SeriesNumber": 8,
      "SeriesTime": "123954.890000",
      "SliceLocation": -52.583739,
      "SliceThickness": 3.0,
      "SmallestImagePixelValue": 0,
      "SoftwareVersions": "syngo MR B15",
      "SpacingBetweenSlices": 3.75,
      "SpecificCharacterSet": "ISO_IR 100",
      "StudyID": "1",
      "StudyTime": "115356.093000",
      "TransmitCoilName": "Body",
      "VariableFlipAngleFlag": "N",
      "WindowCenterWidthExplanation": "Algo1",
      "dBdt": 0.0},
    "slices": {}
  },
  "time": {
    "samples": {
      "AcquisitionNumber": [1, 2, 3, 4, 5, 6, 7, 8, 9, 10, 11, 12, 13, 14, 15, 16, 17, 18, 19, 20, 21, 22, 23, 24, 25, 26, 27, 28, 29, 30, 31, 32, 33, 34, 35, 36, 37, 38, 39, 40, 41, 42, 43, 44, 45, 46, 47, 48, 49, 50, 51, 52, 53, 54, 55, 56, 57, 58, 59, 60, 61, 62, 63, 64, 65, 66, 67, 68, 69, 70, 71, 72, 73, 74, 75, 76, 77, 78, 79, 80, 81, 82, 83, 84, 85, 86, 87, 88, 89, 90, 91, 92, 93, 94, 95, 96, 97, 98, 99, 100, 101, 102, 103, 104, 105, 106, 107, 108, 109, 110, 111, 112, 113, 114, 115, 116, 117, 118, 119, 120, 121, 122, 123, 124, 125, 126, 127, 128, 129, 130, 131, 132, 133, 134, 135, 136, 137, 138, 139, 140, 141, 142, 143, 144, 145, 146, 147, 148, 149, 150, 151, 152, 153, 154, 155, 156, 157, 158, 159, 160, 161, 162, 163, 164, 165, 166, 167, 168, 169, 170, 171, 172, 173, 174, 175, 176, 177, 178, 179, 180, 181, 182, 183, 184, 185, 186, 187, 188, 189, 190, 191, 192, 193, 194, 195, 196, 197, 198, 199, 200, 201, 202, 203, 204, 205, 206, 207, 208, 209, 210],
      "AcquisitionTime": ["123952.095000", "123954.102500", "123956.110000", "123958.117500", "124000.127500", "124002.135000", "124004.142500", "124006.150000", "124008.157500", "124010.167500", "124012.175000", "124014.182500", "124016.190000", "124018.200000", "124020.207500", "124022.215000", "124024.222500", "124026.230000", "124028.240000", "124030.247500", "124032.255000", "124034.262500", "124036.270000", "124038.280000", "124040.287500", "124042.295000", "124044.302500", "124046.312500", "124048.320000", "124050.327500", "124052.335000", "124054.342500", "124056.352500", "124058.360000", "124100.367500", "124102.375000", "124104.382500", "124106.392500", "124108.400000", "124110.407500", "124112.415000", "124114.422500", "124116.432500", "124118.440000", "124120.447500", "124122.455000", "124124.465000", "124126.472500", "124128.480000", "124130.487500", "124132.495000", "124134.505000", "124136.512500", "124138.520000", "124140.527500", "124142.535000", "124144.545000", "124146.552500", "124148.560000", "124150.567500", "124152.577500", "124154.585000", "124156.592500", "124158.600000", "124200.607500", "124202.617500", "124204.625000", "124206.632500", "124208.640000", "124210.647500", "124212.657500", "124214.665000", "124216.672500", "124218.680000", "124220.690000", "124222.697500", "124224.705000", "124226.712500", "124228.720000", "124230.730000", "124232.737500", "124234.745000", "124236.752500", "124238.760000", "124240.770000", "124242.777500", "124244.785000", "124246.792500", "124248.802500", "124250.810000", "124252.817500", "124254.825000", "124256.832500", "124258.842500", "124300.850000", "124302.857500", "124304.865000", "124306.872500", "124308.882500", "124310.890000", "124312.897500", "124314.905000", "124316.912500", "124318.922500", "124320.930000", "124322.937500", "124324.945000", "124326.955000", "124328.962500", "124330.970000", "124332.977500", "124334.985000", "124336.995000", "124339.002500", "124341.010000", "124343.017500", "124345.025000", "124347.035000", "124349.042500", "124351.050000", "124353.057500", "124355.067500", "124357.075000", "124359.082500", "124401.090000", "124403.097500", "124405.107500", "124407.115000", "124409.122500", "124411.130000", "124413.137500", "124415.147500", "124417.155000", "124419.162500", "124421.170000", "124423.180000", "124425.187500", "124427.195000", "124429.202500", "124431.210000", "124433.220000", "124435.227500", "124437.235000", "124439.242500", "124441.250000", "124443.260000", "124445.267500", "124447.275000", "124449.282500", "124451.290000", "124453.300000", "124455.307500", "124457.315000", "124459.322500", "124501.332500", "124503.340000", "124505.347500", "124507.355000", "124509.362500", "124511.372500", "124513.380000", "124515.387500", "124517.395000", "124519.402500", "124521.412500", "124523.420000", "124525.427500", "124527.435000", "124529.445000", "124531.452500", "124533.460000", "124535.467500", "124537.475000", "124539.485000", "124541.492500", "124543.500000", "124545.507500", "124547.515000", "124549.525000", "124551.532500", "124553.540000", "124555.547500", "124557.557500", "124559.565000", "124601.572500", "124603.580000", "124605.587500", "124607.597500", "124609.605000", "124611.612500", "124613.620000", "124615.627500", "124617.637500", "124619.645000", "124621.652500", "124623.660000", "124625.667500", "124627.677500", "124629.685000", "124631.692500", "124633.700000", "124635.710000", "124637.717500", "124639.725000", "124641.732500", "124643.740000", "124645.750000", "124647.757500", "124649.765000", "124651.772500"],
      "ContentTime": ["123954.906000", "123956.890000", "123958.890000", "124000.890000", "124002.890000", "124004.890000", "124006.890000", "124008.890000", "124010.890000", "124012.890000", "124014.890000", "124016.890000", "124018.890000", "124020.890000", "124022.890000", "124024.890000", "124026.890000", "124028.890000", "124030.890000", "124032.890000", "124034.890000", "124036.890000", "124038.890000", "124040.890000", "124042.890000", "124044.906000", "124046.890000", "124048.890000", "124050.890000", "124052.890000", "124054.890000", "124056.890000", "124058.890000", "124100.890000", "124102.890000", "124104.890000", "124106.890000", "124108.890000", "124110.890000", "124112.890000", "124114.890000", "124116.890000", "124118.890000", "124120.890000", "124122.890000", "124124.890000", "124126.890000", "124128.890000", "124130.890000", "124132.890000", "124134.890000", "124136.890000", "124138.890000", "124140.890000", "124142.890000", "124144.890000", "124146.890000", "124148.890000", "124150.890000", "124152.890000", "124154.890000", "124156.890000", "124158.890000", "124200.890000", "124202.890000", "124204.890000", "124206.890000", "124208.906000", "124210.890000", "124212.890000", "124214.890000", "124216.890000", "124218.890000", "124220.890000", "124222.890000", "124224.890000", "124226.890000", "124228.890000", "124230.890000", "124232.890000", "124234.890000", "124236.890000", "124238.890000", "124240.890000", "124242.890000", "124244.890000", "124246.890000", "124248.890000", "124250.890000", "124252.890000", "124254.890000", "124256.890000", "124258.890000", "124300.890000", "124302.890000", "124304.890000", "124306.890000", "124308.890000", "124310.890000", "124312.890000", "124314.890000", "124316.890000", "124318.890000", "124320.890000", "124322.890000", "124324.890000", "124326.890000", "124328.890000", "124330.890000", "124332.890000", "124334.890000", "124336.890000", "124338.890000", "124340.890000", "124342.890000", "124344.890000", "124346.890000", "124348.890000", "124350.890000", "124352.890000", "124354.890000", "124356.890000", "124358.890000", "124400.890000", "124402.890000", "124404.890000", "124406.890000", "124408.890000", "124410.890000", "124412.890000", "124414.890000", "124416.890000", "124418.890000", "124420.906000", "124422.890000", "124424.890000", "124426.890000", "124428.890000", "124430.890000", "124432.906000", "124434.890000", "124436.890000", "124438.890000", "124440.890000", "124442.890000", "124444.890000", "124446.890000", "124448.890000", "124450.890000", "124452.890000", "124454.890000", "124456.890000", "124458.890000", "124500.890000", "124502.890000", "124504.890000", "124506.890000", "124508.890000", "124510.890000", "124512.890000", "124514.890000", "124516.906000", "124518.890000", "124520.890000", "124522.890000", "124524.890000", "124526.890000", "124528.890000", "124530.906000", "124532.890000", "124534.890000", "124536.890000", "124538.890000", "124540.890000", "124542.890000", "124544.906000", "124546.890000", "124548.890000", "124550.890000", "124552.890000", "124554.890000", "124556.890000", "124558.906000", "124600.890000", "124602.890000", "124604.890000", "124606.890000", "124608.890000", "124610.890000", "124612.906000", "124614.890000", "124616.890000", "124618.890000", "124620.890000", "124622.890000", "124624.890000", "124626.906000", "124628.890000", "124630.890000", "124632.890000", "124634.890000", "124636.890000", "124638.890000", "124640.906000", "124642.890000", "124644.890000", "124646.890000", "124648.890000", "124650.890000", "124652.578000"],
      "InstanceCreationTime": ["123954.906000", "123956.890000", "123958.890000", "124000.890000", "124002.890000", "124004.890000", "124006.890000", "124008.890000", "124010.890000", "124012.890000", "124014.890000", "124016.890000", "124018.890000", "124020.890000", "124022.890000", "124024.890000", "124026.890000", "124028.890000", "124030.890000", "124032.890000", "124034.890000", "124036.890000", "124038.890000", "124040.890000", "124042.890000", "124044.906000", "124046.890000", "124048.890000", "124050.890000", "124052.890000", "124054.890000", "124056.890000", "124058.890000", "124100.890000", "124102.890000", "124104.890000", "124106.890000", "124108.890000", "124110.890000", "124112.890000", "124114.890000", "124116.890000", "124118.890000", "124120.890000", "124122.890000", "124124.890000", "124126.890000", "124128.890000", "124130.890000", "124132.890000", "124134.890000", "124136.890000", "124138.890000", "124140.890000", "124142.890000", "124144.890000", "124146.890000", "124148.890000", "124150.890000", "124152.890000", "124154.890000", "124156.890000", "124158.890000", "124200.890000", "124202.890000", "124204.890000", "124206.890000", "124208.906000", "124210.890000", "124212.890000", "124214.890000", "124216.890000", "124218.890000", "124220.890000", "124222.890000", "124224.890000", "124226.890000", "124228.890000", "124230.890000", "124232.890000", "124234.890000", "124236.890000", "124238.890000", "124240.890000", "124242.890000", "124244.890000", "124246.890000", "124248.890000", "124250.890000", "124252.890000", "124254.890000", "124256.890000", "124258.890000", "124300.890000", "124302.890000", "124304.890000", "124306.890000", "124308.890000", "124310.890000", "124312.890000", "124314.890000", "124316.890000", "124318.890000", "124320.890000", "124322.890000", "124324.890000", "124326.890000", "124328.890000", "124330.890000", "124332.890000", "124334.890000", "124336.890000", "124338.890000", "124340.890000", "124342.890000", "124344.890000", "124346.890000", "124348.890000", "124350.890000", "124352.890000", "124354.890000", "124356.890000", "124358.890000", "124400.890000", "124402.890000", "124404.890000", "124406.890000", "124408.890000", "124410.890000", "124412.890000", "124414.890000", "124416.890000", "124418.890000", "124420.906000", "124422.890000", "124424.890000", "124426.890000", "124428.890000", "124430.890000", "124432.906000", "124434.890000", "124436.890000", "124438.890000", "124440.890000", "124442.890000", "124444.890000", "124446.890000", "124448.890000", "124450.890000", "124452.890000", "124454.890000", "124456.890000", "124458.890000", "124500.890000", "124502.890000", "124504.890000", "124506.890000", "124508.890000", "124510.890000", "124512.890000", "124514.890000", "124516.906000", "124518.890000", "124520.890000", "124522.890000", "124524.890000", "124526.890000", "124528.890000", "124530.906000", "124532.890000", "124534.890000", "124536.890000", "124538.890000", "124540.890000", "124542.890000", "124544.906000", "124546.890000", "124548.890000", "124550.890000", "124552.890000", "124554.890000", "124556.890000", "124558.906000", "124600.890000", "124602.890000", "124604.890000", "124606.890000", "124608.890000", "124610.890000", "124612.906000", "124614.890000", "124616.890000", "124618.890000", "124620.890000", "124622.890000", "124624.890000", "124626.906000", "124628.890000", "124630.890000", "124632.890000", "124634.890000", "124636.890000", "124638.890000", "124640.906000", "124642.890000", "124644.890000", "124646.890000", "124648.890000", "124650.890000", "124652.578000"],
      "InstanceNumber": [1, 2, 3, 4, 5, 6, 7, 8, 9, 10, 11, 12, 13, 14, 15, 16, 17, 18, 19, 20, 21, 22, 23, 24, 25, 26, 27, 28, 29, 30, 31, 32, 33, 34, 35, 36, 37, 38, 39, 40, 41, 42, 43, 44, 45, 46, 47, 48, 49, 50, 51, 52, 53, 54, 55, 56, 57, 58, 59, 60, 61, 62, 63, 64, 65, 66, 67, 68, 69, 70, 71, 72, 73, 74, 75, 76, 77, 78, 79, 80, 81, 82, 83, 84, 85, 86, 87, 88, 89, 90, 91, 92, 93, 94, 95, 96, 97, 98, 99, 100, 101, 102, 103, 104, 105, 106, 107, 108, 109, 110, 111, 112, 113, 114, 115, 116, 117, 118, 119, 120, 121, 122, 123, 124, 125, 126, 127, 128, 129, 130, 131, 132, 133, 134, 135, 136, 137, 138, 139, 140, 141, 142, 143, 144, 145, 146, 147, 148, 149, 150, 151, 152, 153, 154, 155, 156, 157, 158, 159, 160, 161, 162, 163, 164, 165, 166, 167, 168, 169, 170, 171, 172, 173, 174, 175, 176, 177, 178, 179, 180, 181, 182, 183, 184, 185, 186, 187, 188, 189, 190, 191, 192, 193, 194, 195, 196, 197, 198, 199, 200, 201, 202, 203, 204, 205, 206, 207, 208, 209, 210],
      "LargestImagePixelValue": [1903, 1801, 1772, 1780, 1758, 1752, 1776, 1759, 1781, 1760, 1763, 1750, 1766, 1728, 1765, 1739, 1750, 1787, 1865, 1756, 1769, 1741, 1702, 1729, 1742, 1746, 1779, 1720, 1727, 1718, 1738, 1746, 1735, 1750, 1759, 1757, 1783, 1735, 1741, 1723, 1729, 1735, 1724, 1747, 1852, 1754, 1718, 1719, 1749, 1718, 1710, 1739, 1733, 1754, 1727, 1719, 1740, 1743, 1749, 1930, 1814, 1738, 1735, 1752, 1753, 1727, 1757, 1725, 1719, 1720, 1731, 1742, 1717, 1728, 1726, 1750, 1713, 1759, 1731, 1804, 1748, 1731, 1732, 1749, 1733, 1734, 1748, 1734, 1739, 1726, 1746, 1739, 1744, 1757, 1728, 1741, 1730, 1741, 1715, 1751, 1827, 2003, 1740, 1723, 1761, 1733, 1729, 1727, 1841, 1958, 1987, 1733, 1712, 1742, 1727, 1705, 1738, 1847, 1733, 1738, 1745, 1728, 1731, 1721, 1740, 1805, 1805, 1746, 1721, 1724, 1721, 1743, 1734, 1733, 1735, 1724, 1738, 1736, 1831, 1732, 1731, 1744, 1758, 1734, 1760, 1872, 1729, 1725, 1729, 1730, 1724, 1725, 1731, 1720, 1746, 1741, 1718, 1727, 1728, 1730, 1759, 1752, 1734, 1721, 1736, 1845, 1856, 1746, 1763, 1729, 1732, 1722, 1731, 1723, 1752, 1740, 1770, 1723, 1784, 1788, 1714, 1756, 1694, 1742, 1833, 1682, 1752, 1920, 1948, 1713, 1671, 1684, 1676, 1690, 1697, 1692, 1701, 1706, 1692, 1708, 1692, 1708, 1688, 1695, 1683, 1682, 1697, 1668, 1689, 1886],
      "WindowCenter": [729.0, 726.0, 727.0, 727.0, 728.0, 728.0, 727.0, 726.0, 726.0, 726.0, 727.0, 728.0, 727.0, 727.0, 727.0, 727.0, 729.0, 728.0, 729.0, 728.0, 727.0, 727.0, 728.0, 729.0, 728.0, 727.0, 726.0, 726.0, 727.0, 729.0, 729.0, 730.0, 730.0, 729.0, 728.0, 727.0, 727.0, 727.0, 726.0, 727.0, 726.0, 726.0, 726.0, 726.0, 727.0, 727.0, 729.0, 730.0, 728.0, 727.0, 726.0, 726.0, 727.0, 728.0, 728.0, 728.0, 729.0, 729.0, 728.0, 728.0, 728.0, 728.0, 727.0, 728.0, 727.0, 727.0, 728.0, 728.0, 728.0, 727.0, 726.0, 727.0, 729.0, 729.0, 729.0, 729.0, 729.0, 730.0, 729.0, 729.0, 727.0, 726.0, 726.0, 728.0, 729.0, 729.0, 728.0, 727.0, 727.0, 727.0, 728.0, 728.0, 728.0, 728.0, 727.0, 728.0, 729.0, 730.0, 732.0, 731.0, 730.0, 729.0, 727.0, 727.0, 728.0, 731.0, 731.0, 729.0, 728.0, 727.0, 727.0, 725.0, 725.0, 726.0, 729.0, 731.0, 729.0, 728.0, 727.0, 726.0, 726.0, 726.0, 727.0, 727.0, 728.0, 729.0, 729.0, 730.0, 730.0, 731.0, 730.0, 728.0, 728.0, 728.0, 728.0, 729.0, 730.0, 730.0, 730.0, 729.0, 727.0, 726.0, 725.0, 726.0, 727.0, 728.0, 728.0, 729.0, 729.0, 729.0, 729.0, 730.0, 730.0, 729.0, 728.0, 727.0, 727.0, 727.0, 728.0, 728.0, 728.0, 729.0, 731.0, 730.0, 729.0, 728.0, 727.0, 727.0, 728.0, 728.0, 728.0, 727.0, 727.0, 727.0, 728.0, 729.0, 730.0, 733.0, 738.0, 735.0, 734.0, 733.0, 731.0, 731.0, 733.0, 732.0, 730.0, 729.0, 727.0, 724.0, 724.0, 726.0, 727.0, 728.0, 728.0, 729.0, 730.0, 731.0, 730.0, 731.0, 731.0, 732.0, 731.0, 731.0, 731.0, 732.0, 733.0, 733.0, 733.0, 732.0],
      "WindowWidth": [1543.0, 1536.0, 1539.0, 1540.0, 1541.0, 1540.0, 1539.0, 1537.0, 1537.0, 1537.0, 1540.0, 1541.0, 1540.0, 1539.0, 1540.0, 1540.0, 1543.0, 1542.0, 1545.0, 1541.0, 1539.0, 1538.0, 1542.0, 1544.0, 1540.0, 1538.0, 1536.0, 1536.0, 1540.0, 1543.0, 1543.0, 1546.0, 1547.0, 1544.0, 1542.0, 1540.0, 1539.0, 1538.0, 1537.0, 1538.0, 1537.0, 1537.0, 1538.0, 1537.0, 1539.0, 1539.0, 1544.0, 1547.0, 1542.0, 1538.0, 1537.0, 1538.0, 1540.0, 1542.0, 1541.0, 1542.0, 1543.0, 1543.0, 1540.0, 1542.0, 1543.0, 1542.0, 1540.0, 1541.0, 1539.0, 1538.0, 1541.0, 1541.0, 1541.0, 1538.0, 1538.0, 1539.0, 1544.0, 1545.0, 1544.0, 1544.0, 1545.0, 1545.0, 1544.0, 1543.0, 1538.0, 1536.0, 1537.0, 1541.0, 1543.0, 1544.0, 1541.0, 1540.0, 1539.0, 1540.0, 1541.0, 1540.0, 1541.0, 1540.0, 1540.0, 1541.0, 1544.0, 1547.0, 1552.0, 1549.0, 1546.0, 1544.0, 1539.0, 1539.0, 1543.0, 1549.0, 1549.0, 1544.0, 1540.0, 1539.0, 1540.0, 1533.0, 1533.0, 1536.0, 1544.0, 1548.0, 1543.0, 1541.0, 1539.0, 1537.0, 1537.0, 1537.0, 1539.0, 1540.0, 1543.0, 1544.0, 1544.0, 1546.0, 1547.0, 1549.0, 1546.0, 1542.0, 1541.0, 1542.0, 1542.0, 1543.0, 1546.0, 1547.0, 1547.0, 1543.0, 1540.0, 1537.0, 1535.0, 1536.0, 1540.0, 1542.0, 1542.0, 1543.0, 1545.0, 1544.0, 1544.0, 1546.0, 1546.0, 1545.0, 1543.0, 1540.0, 1538.0, 1539.0, 1542.0, 1542.0, 1541.0, 1545.0, 1549.0, 1546.0, 1543.0, 1540.0, 1540.0, 1539.0, 1542.0, 1542.0, 1542.0, 1539.0, 1538.0, 1538.0, 1542.0, 1545.0, 1548.0, 1555.0, 1568.0, 1560.0, 1556.0, 1554.0, 1548.0, 1549.0, 1554.0, 1551.0, 1547.0, 1544.0, 1538.0, 1532.0, 1533.0, 1537.0, 1539.0, 1541.0, 1541.0, 1544.0, 1547.0, 1548.0, 1547.0, 1548.0, 1549.0, 1550.0, 1549.0, 1549.0, 1549.0, 1551.0, 1554.0, 1554.0, 1553.0, 1550.0]
    },
    "slices": {}
  }
}