{
  "AcquisitionMatrixPE": 64,
  "AcquisitionNumber": 1,
  "AcquisitionTime": "12:32:1.250000",
  "BandwidthPerPixelPhaseEncode": 30.637,
  "BaseResolution": 64,
  "BidsGuess": [
    "func",
    "_acq-epfid2_dir-AP_run-7_bold"
],
  "CoilCombinationMethod": "Sum of Squares",
  "CoilString": "C:HEA;HEP",
  "ConversionSoftware": "dcm2niix",
  "ConversionSoftwareVersion": "v1.0.20240202",
  "DerivedVendorReportedEchoSpacing": 0.000510004,
  "DeviceSerialNumber": "35119",
  "DwellTime": 3.5e-06,
  "EchoTime": 0.03,
  "EffectiveEchoSpacing": 0.000510004,
  "FlipAngle": 78,
  "HeudiconvVersion": "1.1.6",
  "ImageComments": "V",
  "ImageOrientationPatientDICOM": [1, 0, 0, 0, 0.904083, -0.427358],
  "ImageOrientationText": "Tra>Cor(-25.3)",
  "ImageType": [
    "ORIGINAL",
    "PRIMARY",
    "M",
    "ND",
    "MOSAIC"
],
  "ImagingFrequency": 123.251948,
  "InPlanePhaseEncodingDirectionDICOM": "COL",
  "InstitutionAddress": "Chaucer Road  15,Cambridge,UK,GB,CB2 2EF",
  "InstitutionName": "MRC-CBU",
  "MRAcquisitionType": "2D",
  "MagneticFieldStrength": 3,
  "Manufacturer": "Siemens",
  "ManufacturersModelName": "TrioTim",
  "MatrixCoilMode": "SENSE",
  "Modality": "MR",
  "NonlinearGradientCorrection": false,
  "PartialFourier": 1,
  "PatientPosition": "HFS",
  "PercentPhaseFOV": 100,
  "PercentSampling": 100,
  "PhaseEncodingDirection": "j-",
  "PhaseEncodingSteps": 64,
  "PhaseResolution": 1,
  "PixelBandwidth": 2230,
  "ProcedureStepDescription": "CBU^Neuroimaging",
  "ProtocolName": "CBU_DWEPI_BOLD210",
  "PulseSequenceDetails": "%SiemensSeq%\\ep2d_bold",
  "ReceiveCoilName": "HeadMatrix",
  "ReconMatrixPE": 64,
  "RepetitionTime": 2,
  "SAR": 0.141777,
  "ScanOptions": "FS",
  "ScanningSequence": "EP",
  "SequenceName": "*epfid2d1_64",
  "SequenceVariant": "SK",
  "SeriesDescription": "CBU_DWEPI_BOLD210",
  "SeriesNumber": 7,
  "ShimSetting": [-7779, -8837, -2256, 687, 190, -7, -8, 38],
  "SliceThickness": 3,
  "SliceTiming": [0, 1.035, 0.0625, 1.095, 0.1225, 1.1575, 0.1825, 1.2175, 0.245, 1.2775, 0.305, 1.34, 0.365, 1.4, 0.4275, 1.46, 0.4875, 1.5225, 0.5475, 1.5825, 0.61, 1.6425, 0.67, 1.705, 0.73, 1.765, 0.7925, 1.825, 0.8525, 1.8875, 0.9125, 1.9475, 0.975],
  "SoftwareVersions": "syngo MR B15",
  "SpacingBetweenSlices": 3.75,
  "StationName": "MRC35119",
  "TaskName": "faceprocessing",
  "TotalReadoutTime": 0.0321303,
  "TxRefAmp": 317.273,
  "dcmmeta_affine": [
    [-3.0, 0.0, 0.0, 98.53389739990234],
    [0.0, 2.7122490406036377, -1.6025924682617188, -51.0002555847168],
    [0.0, 1.282073974609375, 3.3903112411499023, -82.27018737792969],
    [0.0, 0.0, 0.0, 1.0]
],
  "dcmmeta_reorient_transform": [
    [0.0, -1.0, 0.0, 63.0],
    [1.0, 0.0, 0.0, 0.0],
    [0.0, 0.0, 1.0, 0.0],
    [0.0, 0.0, 0.0, 1.0]
],
  "dcmmeta_shape": [64, 64, 33, 210],
  "dcmmeta_slice_dim": 2,
  "dcmmeta_version": 0.6,
  "global": {
    "const": {
      "AcquisitionMatrix": [64, 0, 0, 64],
      "AngioFlag": "N",
      "BitsAllocated": 16,
      "BitsStored": 12,
      "Columns": 384,
      "EchoNumbers": 1,
      "EchoTime": 30.0,
      "EchoTrainLength": 1,
      "FlipAngle": 78.0,
      "HighBit": 11,
      "ImageOrientationPatient": [1.0, 0.0, 0.0, 0.0, 0.904083, -0.427358],
      "ImagePositionPatient": [-578.533898, -553.831271, 203.632315],
      "ImageType": [
        "ORIGINAL",
        "PRIMARY",
        "M",
        "ND",
        "MOSAIC"
],
      "ImagedNucleus": "1H",
      "ImagingFrequency": 123.251948,
      "InPlanePhaseEncodingDirection": "COL",
      "MRAcquisitionType": "2D",
      "MagneticFieldStrength": 3.0,
      "Manufacturer": "SIEMENS",
      "ManufacturerModelName": "TrioTim",
      "Modality": "MR",
      "NumberOfAverages": 1.0,
      "NumberOfPhaseEncodingSteps": 64,
      "PercentPhaseFieldOfView": 100.0,
      "PercentSampling": 100.0,
      "PerformedProcedureStepStartTime": "115356.140000",
      "PhotometricInterpretation": "MONOCHROME2",
      "PixelAspectRatio": [1, 1],
      "PixelBandwidth": 2230.0,
      "PixelRepresentation": 0,
      "PixelSpacing": [3.0, 3.0],
      "ProtocolName": "CBU_DWEPI_BOLD210",
      "RepetitionTime": 2000.0,
      "Rows": 384,
      "SAR": 0.141777,
      "SamplesPerPixel": 1,
      "ScanOptions": "FS",
      "ScanningSequence": "EP",
      "SequenceName": "*epfid2d1_64",
      "SequenceVariant": "SK",
      "SeriesDescription": "CBU_DWEPI_BOLD210",
      "SeriesNumber": 7,
      "SeriesTime": "123203.578000",
      "SliceLocation": -52.583739,
      "SliceThickness": 3.0,
      "SmallestImagePixelValue": 0,
      "SoftwareVersions": "syngo MR B15",
      "SpacingBetweenSlices": 3.75,
      "SpecificCharacterSet": "ISO_IR 100",
      "StudyID": "1",
      "StudyTime": "115356.093000",
      "TransmitCoilName": "Body",
      "VariableFlipAngleFlag": "N",
      "WindowCenterWidthExplanation": "Algo1",
      "dBdt": 0.0},
    "slices": {}
  },
  "time": {
    "samples": {
      "AcquisitionNumber": [1, 2, 3, 4, 5, 6, 7, 8, 9, 10, 11, 12, 13, 14, 15, 16, 17, 18, 19, 20, 21, 22, 23, 24, 25, 26, 27, 28, 29, 30, 31, 32, 33, 34, 35, 36, 37, 38, 39, 40, 41, 42, 43, 44, 45, 46, 47, 48, 49, 50, 51, 52, 53, 54, 55, 56, 57, 58, 59, 60, 61, 62, 63, 64, 65, 66, 67, 68, 69, 70, 71, 72, 73, 74, 75, 76, 77, 78, 79, 80, 81, 82, 83, 84, 85, 86, 87, 88, 89, 90, 91, 92, 93, 94, 95, 96, 97, 98, 99, 100, 101, 102, 103, 104, 105, 106, 107, 108, 109, 110, 111, 112, 113, 114, 115, 116, 117, 118, 119, 120, 121, 122, 123, 124, 125, 126, 127, 128, 129, 130, 131, 132, 133, 134, 135, 136, 137, 138, 139, 140, 141, 142, 143, 144, 145, 146, 147, 148, 149, 150, 151, 152, 153, 154, 155, 156, 157, 158, 159, 160, 161, 162, 163, 164, 165, 166, 167, 168, 169, 170, 171, 172, 173, 174, 175, 176, 177, 178, 179, 180, 181, 182, 183, 184, 185, 186, 187, 188, 189, 190, 191, 192, 193, 194, 195, 196, 197, 198, 199, 200, 201, 202, 203, 204, 205, 206, 207, 208, 209, 210],
      "AcquisitionTime": ["123201.250000", "123203.257500", "123205.267500", "123207.275000", "123209.282500", "123211.290000", "123213.300000", "123215.307500", "123217.315000", "123219.322500", "123221.330000", "123223.340000", "123225.347500", "123227.355000", "123229.362500", "123231.370000", "123233.380000", "123235.387500", "123237.395000", "123239.402500", "123241.412500", "123243.420000", "123245.427500", "123247.435000", "123249.442500", "123251.452500", "123253.460000", "123255.467500", "123257.475000", "123259.482500", "123301.492500", "123303.500000", "123305.507500", "123307.515000", "123309.525000", "123311.532500", "123313.540000", "123315.547500", "123317.555000", "123319.565000", "123321.572500", "123323.580000", "123325.587500", "123327.595000", "123329.605000", "123331.612500", "123333.620000", "123335.627500", "123337.635000", "123339.645000", "123341.652500", "123343.660000", "123345.667500", "123347.677500", "123349.685000", "123351.692500", "123353.700000", "123355.707500", "123357.717500", "123359.725000", "123401.732500", "123403.740000", "123405.747500", "123407.757500", "123409.765000", "123411.772500", "123413.780000", "123415.790000", "123417.797500", "123419.805000", "123421.812500", "123423.820000", "123425.830000", "123427.837500", "123429.845000", "123431.852500", "123433.860000", "123435.870000", "123437.877500", "123439.885000", "123441.892500", "123443.902500", "123445.910000", "123447.917500", "123449.925000", "123451.932500", "123453.942500", "123455.950000", "123457.957500", "123459.965000", "123501.972500", "123503.982500", "123505.990000", "123507.997500", "123510.005000", "123512.012500", "123514.022500", "123516.030000", "123518.037500", "123520.045000", "123522.055000", "123524.062500", "123526.070000", "123528.077500", "123530.085000", "123532.095000", "123534.102500", "123536.110000", "123538.117500", "123540.125000", "123542.135000", "123544.142500", "123546.150000", "123548.157500", "123550.167500", "123552.175000", "123554.182500", "123556.190000", "123558.197500", "123600.207500", "123602.215000", "123604.222500", "123606.230000", "123608.237500", "123610.247500", "123612.255000", "123614.262500", "123616.270000", "123618.280000", "123620.287500", "123622.295000", "123624.302500", "123626.310000", "123628.320000", "123630.327500", "123632.335000", "123634.342500", "123636.350000", "123638.360000", "123640.367500", "123642.375000", "123644.382500", "123646.390000", "123648.400000", "123650.407500", "123652.415000", "123654.422500", "123656.432500", "123658.440000", "123700.447500", "123702.455000", "123704.462500", "123706.472500", "123708.480000", "123710.487500", "123712.495000", "123714.502500", "123716.512500", "123718.520000", "123720.527500", "123722.535000", "123724.545000", "123726.552500", "123728.560000", "123730.567500", "123732.575000", "123734.585000", "123736.592500", "123738.600000", "123740.607500", "123742.615000", "123744.625000", "123746.632500", "123748.640000", "123750.647500", "123752.657500", "123754.665000", "123756.672500", "123758.680000", "123800.687500", "123802.697500", "123804.705000", "123806.712500", "123808.720000", "123810.727500", "123812.737500", "123814.745000", "123816.752500", "123818.760000", "123820.767500", "123822.777500", "123824.785000", "123826.792500", "123828.800000", "123830.810000", "123832.817500", "123834.825000", "123836.832500", "123838.840000", "123840.850000", "123842.857500", "123844.865000", "123846.872500", "123848.880000", "123850.890000", "123852.897500", "123854.905000", "123856.912500", "123858.922500", "123900.930000"],
      "ContentTime": ["123203.578000", "123206.078000", "123207.578000", "123209.578000", "123211.578000", "123213.578000", "123215.578000", "123217.578000", "123219.578000", "123221.578000", "123223.578000", "123225.578000", "123227.578000", "123229.578000", "123231.578000", "123233.578000", "123235.578000", "123237.578000", "123239.578000", "123241.578000", "123243.578000", "123245.578000", "123247.578000", "123249.578000", "123251.578000", "123253.578000", "123255.578000", "123257.578000", "123259.578000", "123301.578000", "123303.578000", "123305.578000", "123307.578000", "123309.578000", "123311.578000", "123313.578000", "123315.578000", "123318.078000", "123319.578000", "123321.578000", "123323.578000", "123325.578000", "123327.578000", "123329.578000", "123331.578000", "123333.578000", "123335.578000", "123337.578000", "123339.578000", "123341.578000", "123344.078000", "123345.578000", "123347.578000", "123349.578000", "123351.578000", "123353.578000", "123355.578000", "123357.578000", "123359.578000", "123401.578000", "123403.578000", "123405.578000", "123407.578000", "123409.578000", "123411.578000", "123414.078000", "123415.578000", "123417.578000", "123419.578000", "123421.578000", "123423.578000", "123425.578000", "123427.578000", "123429.578000", "123431.578000", "123433.578000", "123435.578000", "123437.578000", "123439.578000", "123441.578000", "123443.578000", "123445.578000", "123447.578000", "123449.578000", "123451.578000", "123453.578000", "123455.578000", "123457.578000", "123459.578000", "123501.578000", "123503.578000", "123505.578000", "123507.578000", "123509.578000", "123511.578000", "123513.578000", "123515.578000", "123517.578000", "123520.078000", "123521.578000", "123523.578000", "123525.578000", "123528.078000", "123529.578000", "123531.578000", "123533.578000", "123535.578000", "123537.578000", "123539.578000", "123541.578000", "123543.578000", "123546.078000", "123547.578000", "123549.578000", "123551.578000", "123553.578000", "123555.578000", "123557.578000", "123559.578000", "123601.578000", "123603.578000", "123605.578000", "123607.578000", "123609.578000", "123611.578000", "123613.578000", "123615.578000", "123618.078000", "123619.578000", "123621.578000", "123624.078000", "123625.578000", "123627.578000", "123629.578000", "123631.578000", "123633.578000", "123635.578000", "123637.578000", "123639.578000", "123641.578000", "123643.578000", "123645.578000", "123647.578000", "123649.578000", "123652.078000", "123653.578000", "123655.578000", "123657.578000", "123659.578000", "123701.578000", "123703.578000", "123705.578000", "123708.078000", "123709.578000", "123711.578000", "123713.578000", "123715.578000", "123717.578000", "123719.578000", "123721.578000", "123723.578000", "123725.578000", "123728.078000", "123729.578000", "123731.578000", "123733.578000", "123735.578000", "123737.578000", "123739.578000", "123741.578000", "123743.578000", "123745.578000", "123747.578000", "123749.578000", "123751.578000", "123753.578000", "123755.578000", "123757.578000", "123759.578000", "123801.578000", "123803.578000", "123805.578000", "123808.078000", "123809.578000", "123811.578000", "123813.578000", "123815.578000", "123817.578000", "123820.078000", "123821.578000", "123823.578000", "123825.578000", "123827.578000", "123830.078000", "123832.078000", "123833.578000", "123835.578000", "123837.578000", "123840.078000", "123841.578000", "123843.578000", "123845.578000", "123847.578000", "123850.078000", "123851.578000", "123853.578000", "123856.078000", "123857.578000", "123859.578000", "123901.500000"],
      "InstanceCreationTime": ["123203.578000", "123206.078000", "123207.578000", "123209.578000", "123211.578000", "123213.578000", "123215.578000", "123217.578000", "123219.578000", "123221.578000", "123223.578000", "123225.578000", "123227.578000", "123229.578000", "123231.578000", "123233.578000", "123235.578000", "123237.578000", "123239.578000", "123241.578000", "123243.578000", "123245.578000", "123247.578000", "123249.578000", "123251.578000", "123253.578000", "123255.578000", "123257.578000", "123259.578000", "123301.578000", "123303.578000", "123305.578000", "123307.578000", "123309.578000", "123311.578000", "123313.578000", "123315.578000", "123318.078000", "123319.578000", "123321.578000", "123323.578000", "123325.578000", "123327.578000", "123329.578000", "123331.578000", "123333.578000", "123335.578000", "123337.578000", "123339.578000", "123341.578000", "123344.078000", "123345.578000", "123347.578000", "123349.578000", "123351.578000", "123353.578000", "123355.578000", "123357.578000", "123359.578000", "123401.578000", "123403.578000", "123405.578000", "123407.578000", "123409.578000", "123411.578000", "123414.078000", "123415.578000", "123417.578000", "123419.578000", "123421.578000", "123423.578000", "123425.578000", "123427.578000", "123429.578000", "123431.578000", "123433.578000", "123435.578000", "123437.578000", "123439.578000", "123441.578000", "123443.578000", "123445.578000", "123447.578000", "123449.578000", "123451.578000", "123453.578000", "123455.578000", "123457.578000", "123459.578000", "123501.578000", "123503.578000", "123505.578000", "123507.578000", "123509.578000", "123511.578000", "123513.578000", "123515.578000", "123517.578000", "123520.078000", "123521.578000", "123523.578000", "123525.578000", "123528.078000", "123529.578000", "123531.578000", "123533.578000", "123535.578000", "123537.578000", "123539.578000", "123541.578000", "123543.578000", "123546.078000", "123547.578000", "123549.578000", "123551.578000", "123553.578000", "123555.578000", "123557.578000", "123559.578000", "123601.578000", "123603.578000", "123605.578000", "123607.578000", "123609.578000", "123611.578000", "123613.578000", "123615.578000", "123618.078000", "123619.578000", "123621.578000", "123624.078000", "123625.578000", "123627.578000", "123629.578000", "123631.578000", "123633.578000", "123635.578000", "123637.578000", "123639.578000", "123641.578000", "123643.578000", "123645.578000", "123647.578000", "123649.578000", "123652.078000", "123653.578000", "123655.578000", "123657.578000", "123659.578000", "123701.578000", "123703.578000", "123705.578000", "123708.078000", "123709.578000", "123711.578000", "123713.578000", "123715.578000", "123717.578000", "123719.578000", "123721.578000", "123723.578000", "123725.578000", "123728.078000", "123729.578000", "123731.578000", "123733.578000", "123735.578000", "123737.578000", "123739.578000", "123741.578000", "123743.578000", "123745.578000", "123747.578000", "123749.578000", "123751.578000", "123753.578000", "123755.578000", "123757.578000", "123759.578000", "123801.578000", "123803.578000", "123805.578000", "123808.078000", "123809.578000", "123811.578000", "123813.578000", "123815.578000", "123817.578000", "123820.078000", "123821.578000", "123823.578000", "123825.578000", "123827.578000", "123830.078000", "123832.078000", "123833.578000", "123835.578000", "123837.578000", "123840.078000", "123841.578000", "123843.578000", "123845.578000", "123847.578000", "123850.078000", "123851.578000", "123853.578000", "123856.078000", "123857.578000", "123859.578000", "123901.500000"],
      "InstanceNumber": [1, 2, 3, 4, 5, 6, 7, 8, 9, 10, 11, 12, 13, 14, 15, 16, 17, 18, 19, 20, 21, 22, 23, 24, 25, 26, 27, 28, 29, 30, 31, 32, 33, 34, 35, 36, 37, 38, 39, 40, 41, 42, 43, 44, 45, 46, 47, 48, 49, 50, 51, 52, 53, 54, 55, 56, 57, 58, 59, 60, 61, 62, 63, 64, 65, 66, 67, 68, 69, 70, 71, 72, 73, 74, 75, 76, 77, 78, 79, 80, 81, 82, 83, 84, 85, 86, 87, 88, 89, 90, 91, 92, 93, 94, 95, 96, 97, 98, 99, 100, 101, 102, 103, 104, 105, 106, 107, 108, 109, 110, 111, 112, 113, 114, 115, 116, 117, 118, 119, 120, 121, 122, 123, 124, 125, 126, 127, 128, 129, 130, 131, 132, 133, 134, 135, 136, 137, 138, 139, 140, 141, 142, 143, 144, 145, 146, 147, 148, 149, 150, 151, 152, 153, 154, 155, 156, 157, 158, 159, 160, 161, 162, 163, 164, 165, 166, 167, 168, 169, 170, 171, 172, 173, 174, 175, 176, 177, 178, 179, 180, 181, 182, 183, 184, 185, 186, 187, 188, 189, 190, 191, 192, 193, 194, 195, 196, 197, 198, 199, 200, 201, 202, 203, 204, 205, 206, 207, 208, 209, 210],
      "LargestImagePixelValue": [1839, 1754, 1708, 1706, 1701, 1686, 1692, 1691, 1685, 1717, 1710, 1699, 1753, 1746, 1677, 1767, 1682, 1698, 1699, 1728, 1702, 1673, 1693, 1690, 1699, 1667, 1792, 1690, 1703, 1696, 1699, 1705, 1687, 1693, 1720, 1695, 1831, 1693, 1700, 1694, 1698, 1722, 1698, 1682, 1694, 1714, 1690, 1695, 1690, 1691, 1683, 1704, 1688, 1690, 1697, 1679, 1772, 1696, 1697, 1770, 1686, 1695, 1892, 1808, 1897, 1779, 1646, 1659, 1669, 1678, 1680, 1679, 1682, 1679, 1694, 1676, 1701, 1681, 1676, 1680, 1667, 1677, 1658, 1660, 1672, 1685, 1662, 1680, 1698, 1667, 1684, 1676, 1673, 1673, 1694, 1788, 1844, 1885, 1934, 1671, 1661, 1676, 1674, 1690, 1668, 1698, 1687, 1717, 1699, 1697, 1768, 1669, 1670, 1676, 1729, 1678, 1706, 1673, 1872, 1981, 1680, 1661, 1666, 1695, 1650, 1655, 1650, 1668, 1672, 1708, 1693, 1737, 1681, 1671, 1778, 1658, 1673, 1672, 1702, 1749, 1898, 1664, 1660, 1652, 1658, 1687, 1650, 1668, 1685, 1846, 2007, 1874, 1899, 1675, 1672, 1739, 1720, 1655, 1647, 1657, 1672, 1669, 1668, 1657, 1647, 1672, 1828, 1652, 1690, 1740, 1680, 1687, 1864, 1981, 2042, 1676, 1685, 1687, 1742, 1704, 1691, 1664, 1673, 1669, 1667, 1725, 1689, 1674, 1669, 1788, 1996, 1964, 1845, 1655, 1663, 1743, 1679, 1936, 1678, 1684, 1691, 1682, 1681, 1707, 1875, 1897, 1700, 1697, 1739, 1725],
      "WindowCenter": [730.0, 728.0, 728.0, 728.0, 729.0, 729.0, 729.0, 728.0, 729.0, 730.0, 730.0, 729.0, 730.0, 731.0, 730.0, 729.0, 727.0, 727.0, 727.0, 727.0, 727.0, 726.0, 726.0, 726.0, 727.0, 727.0, 728.0, 727.0, 729.0, 729.0, 727.0, 726.0, 726.0, 727.0, 728.0, 727.0, 727.0, 725.0, 725.0, 725.0, 727.0, 726.0, 725.0, 725.0, 725.0, 726.0, 727.0, 727.0, 729.0, 729.0, 729.0, 729.0, 729.0, 729.0, 728.0, 727.0, 726.0, 726.0, 725.0, 728.0, 728.0, 730.0, 729.0, 726.0, 724.0, 722.0, 722.0, 723.0, 725.0, 725.0, 725.0, 726.0, 726.0, 728.0, 729.0, 728.0, 728.0, 728.0, 728.0, 728.0, 728.0, 728.0, 728.0, 728.0, 728.0, 727.0, 727.0, 728.0, 728.0, 729.0, 728.0, 727.0, 727.0, 727.0, 731.0, 731.0, 729.0, 728.0, 727.0, 725.0, 725.0, 726.0, 725.0, 725.0, 725.0, 726.0, 727.0, 727.0, 728.0, 728.0, 728.0, 727.0, 727.0, 726.0, 728.0, 731.0, 732.0, 730.0, 728.0, 725.0, 723.0, 723.0, 724.0, 724.0, 724.0, 725.0, 726.0, 727.0, 727.0, 728.0, 729.0, 729.0, 728.0, 727.0, 726.0, 725.0, 726.0, 727.0, 726.0, 726.0, 728.0, 727.0, 729.0, 729.0, 729.0, 729.0, 731.0, 732.0, 731.0, 729.0, 728.0, 726.0, 727.0, 727.0, 728.0, 727.0, 726.0, 725.0, 725.0, 726.0, 726.0, 726.0, 726.0, 728.0, 728.0, 727.0, 727.0, 726.0, 728.0, 732.0, 733.0, 730.0, 729.0, 727.0, 725.0, 723.0, 723.0, 724.0, 725.0, 725.0, 726.0, 726.0, 728.0, 729.0, 729.0, 730.0, 733.0, 734.0, 731.0, 730.0, 728.0, 726.0, 725.0, 725.0, 725.0, 726.0, 725.0, 727.0, 727.0, 728.0, 728.0, 728.0, 730.0, 730.0, 730.0, 728.0, 727.0, 728.0, 728.0, 728.0],
      "WindowWidth": [1546.0, 1541.0, 1541.0, 1541.0, 1543.0, 1543.0, 1543.0, 1542.0, 1543.0, 1546.0, 1547.0, 1543.0, 1547.0, 1549.0, 1545.0, 1543.0, 1540.0, 1539.0, 1538.0, 1540.0, 1539.0, 1537.0, 1537.0, 1537.0, 1540.0, 1539.0, 1540.0, 1540.0, 1544.0, 1543.0, 1539.0, 1536.0, 1536.0, 1540.0, 1542.0, 1538.0, 1538.0, 1533.0, 1534.0, 1535.0, 1538.0, 1537.0, 1535.0, 1535.0, 1535.0, 1537.0, 1539.0, 1540.0, 1545.0, 1545.0, 1544.0, 1543.0, 1544.0, 1545.0, 1541.0, 1539.0, 1537.0, 1536.0, 1535.0, 1542.0, 1543.0, 1546.0, 1543.0, 1536.0, 1531.0, 1527.0, 1528.0, 1531.0, 1534.0, 1535.0, 1535.0, 1535.0, 1537.0, 1542.0, 1543.0, 1542.0, 1542.0, 1541.0, 1542.0, 1542.0, 1542.0, 1542.0, 1541.0, 1542.0, 1540.0, 1539.0, 1539.0, 1541.0, 1542.0, 1543.0, 1542.0, 1539.0, 1538.0, 1540.0, 1551.0, 1549.0, 1544.0, 1540.0, 1539.0, 1535.0, 1534.0, 1535.0, 1534.0, 1535.0, 1535.0, 1537.0, 1538.0, 1539.0, 1541.0, 1542.0, 1540.0, 1539.0, 1540.0, 1537.0, 1543.0, 1549.0, 1552.0, 1546.0, 1541.0, 1534.0, 1530.0, 1530.0, 1531.0, 1532.0, 1531.0, 1534.0, 1538.0, 1539.0, 1540.0, 1542.0, 1543.0, 1544.0, 1541.0, 1539.0, 1537.0, 1535.0, 1537.0, 1539.0, 1537.0, 1537.0, 1541.0, 1540.0, 1543.0, 1545.0, 1545.0, 1545.0, 1548.0, 1551.0, 1548.0, 1545.0, 1542.0, 1537.0, 1538.0, 1539.0, 1540.0, 1540.0, 1537.0, 1534.0, 1534.0, 1537.0, 1537.0, 1536.0, 1537.0, 1541.0, 1540.0, 1538.0, 1539.0, 1537.0, 1540.0, 1553.0, 1553.0, 1547.0, 1545.0, 1539.0, 1534.0, 1528.0, 1529.0, 1533.0, 1535.0, 1534.0, 1535.0, 1536.0, 1541.0, 1543.0, 1544.0, 1547.0, 1553.0, 1555.0, 1550.0, 1546.0, 1541.0, 1537.0, 1534.0, 1533.0, 1534.0, 1535.0, 1534.0, 1539.0, 1539.0, 1542.0, 1542.0, 1542.0, 1545.0, 1547.0, 1546.0, 1542.0, 1539.0, 1541.0, 1542.0, 1542.0]
    },
    "slices": {}
  }
}