{
  "AcquisitionMatrixPE": 64,
  "AcquisitionNumber": 1,
  "AcquisitionTime": "12:17:12.510000",
  "BandwidthPerPixelPhaseEncode": 30.637,
  "BaseResolution": 64,
  "BidsGuess": [
    "func",
    "_acq-epfid2_dir-AP_run-5_bold"
],
  "CoilCombinationMethod": "Sum of Squares",
  "CoilString": "C:HEA;HEP",
  "ConversionSoftware": "dcm2niix",
  "ConversionSoftwareVersion": "v1.0.20240202",
  "DerivedVendorReportedEchoSpacing": 0.000510004,
  "DeviceSerialNumber": "35119",
  "DwellTime": 3.5e-06,
  "EchoTime": 0.03,
  "EffectiveEchoSpacing": 0.000510004,
  "FlipAngle": 78,
  "HeudiconvVersion": "1.1.6",
  "ImageComments": "V",
  "ImageOrientationPatientDICOM": [1, 0, 0, 0, 0.904083, -0.427358],
  "ImageOrientationText": "Tra>Cor(-25.3)",
  "ImageType": [
    "ORIGINAL",
    "PRIMARY",
    "M",
    "ND",
    "MOSAIC"
],
  "ImagingFrequency": 123.251948,
  "InPlanePhaseEncodingDirectionDICOM": "COL",
  "InstitutionAddress": "Chaucer Road  15,Cambridge,UK,GB,CB2 2EF",
  "InstitutionName": "MRC-CBU",
  "MRAcquisitionType": "2D",
  "MagneticFieldStrength": 3,
  "Manufacturer": "Siemens",
  "ManufacturersModelName": "TrioTim",
  "MatrixCoilMode": "SENSE",
  "Modality": "MR",
  "NonlinearGradientCorrection": false,
  "PartialFourier": 1,
  "PatientPosition": "HFS",
  "PercentPhaseFOV": 100,
  "PercentSampling": 100,
  "PhaseEncodingDirection": "j-",
  "PhaseEncodingSteps": 64,
  "PhaseResolution": 1,
  "PixelBandwidth": 2230,
  "ProcedureStepDescription": "CBU^Neuroimaging",
  "ProtocolName": "CBU_DWEPI_BOLD210",
  "PulseSequenceDetails": "%SiemensSeq%\\ep2d_bold",
  "ReceiveCoilName": "HeadMatrix",
  "ReconMatrixPE": 64,
  "RepetitionTime": 2,
  "SAR": 0.141777,
  "ScanOptions": "FS",
  "ScanningSequence": "EP",
  "SequenceName": "*epfid2d1_64",
  "SequenceVariant": "SK",
  "SeriesDescription": "CBU_DWEPI_BOLD210",
  "SeriesNumber": 5,
  "ShimSetting": [-7779, -8837, -2256, 687, 190, -7, -8, 38],
  "SliceThickness": 3,
  "SliceTiming": [0, 1.035, 0.06, 1.095, 0.1225, 1.155, 0.1825, 1.2175, 0.2425, 1.2775, 0.305, 1.3375, 0.365, 1.4, 0.425, 1.46, 0.4875, 1.52, 0.5475, 1.5825, 0.6075, 1.6425, 0.67, 1.7025, 0.73, 1.765, 0.79, 1.825, 0.8525, 1.885, 0.9125, 1.9475, 0.9725],
  "SoftwareVersions": "syngo MR B15",
  "SpacingBetweenSlices": 3.75,
  "StationName": "MRC35119",
  "TaskName": "faceprocessing",
  "TotalReadoutTime": 0.0321303,
  "TxRefAmp": 317.273,
  "dcmmeta_affine": [
    [-3.0, 0.0, 0.0, 98.53389739990234],
    [0.0, 2.7122490406036377, -1.6025924682617188, -51.0002555847168],
    [0.0, 1.282073974609375, 3.3903112411499023, -82.27018737792969],
    [0.0, 0.0, 0.0, 1.0]
],
  "dcmmeta_reorient_transform": [
    [0.0, -1.0, 0.0, 63.0],
    [1.0, 0.0, 0.0, 0.0],
    [0.0, 0.0, 1.0, 0.0],
    [0.0, 0.0, 0.0, 1.0]
],
  "dcmmeta_shape": [64, 64, 33, 210],
  "dcmmeta_slice_dim": 2,
  "dcmmeta_version": 0.6,
  "global": {
    "const": {
      "AcquisitionMatrix": [64, 0, 0, 64],
      "AngioFlag": "N",
      "BitsAllocated": 16,
      "BitsStored": 12,
      "Columns": 384,
      "EchoNumbers": 1,
      "EchoTime": 30.0,
      "EchoTrainLength": 1,
      "FlipAngle": 78.0,
      "HighBit": 11,
      "ImageOrientationPatient": [1.0, 0.0, 0.0, 0.0, 0.904083, -0.427358],
      "ImagePositionPatient": [-578.533898, -553.831271, 203.632315],
      "ImageType": [
        "ORIGINAL",
        "PRIMARY",
        "M",
        "ND",
        "MOSAIC"
],
      "ImagedNucleus": "1H",
      "ImagingFrequency": 123.251948,
      "InPlanePhaseEncodingDirection": "COL",
      "MRAcquisitionType": "2D",
      "MagneticFieldStrength": 3.0,
      "Manufacturer": "SIEMENS",
      "ManufacturerModelName": "TrioTim",
      "Modality": "MR",
      "NumberOfAverages": 1.0,
      "NumberOfPhaseEncodingSteps": 64,
      "PercentPhaseFieldOfView": 100.0,
      "PercentSampling": 100.0,
      "PerformedProcedureStepStartTime": "115356.140000",
      "PhotometricInterpretation": "MONOCHROME2",
      "PixelAspectRatio": [1, 1],
      "PixelBandwidth": 2230.0,
      "PixelRepresentation": 0,
      "PixelSpacing": [3.0, 3.0],
      "ProtocolName": "CBU_DWEPI_BOLD210",
      "RepetitionTime": 2000.0,
      "Rows": 384,
      "SAR": 0.141777,
      "SamplesPerPixel": 1,
      "ScanOptions": "FS",
      "ScanningSequence": "EP",
      "SequenceName": "*epfid2d1_64",
      "SequenceVariant": "SK",
      "SeriesDescription": "CBU_DWEPI_BOLD210",
      "SeriesNumber": 5,
      "SeriesTime": "121715.218000",
      "SliceLocation": -52.583739,
      "SliceThickness": 3.0,
      "SmallestImagePixelValue": 0,
      "SoftwareVersions": "syngo MR B15",
      "SpacingBetweenSlices": 3.75,
      "SpecificCharacterSet": "ISO_IR 100",
      "StudyID": "1",
      "StudyTime": "115356.093000",
      "TransmitCoilName": "Body",
      "VariableFlipAngleFlag": "N",
      "WindowCenterWidthExplanation": "Algo1",
      "dBdt": 0.0},
    "slices": {}
  },
  "time": {
    "samples": {
      "AcquisitionNumber": [1, 2, 3, 4, 5, 6, 7, 8, 9, 10, 11, 12, 13, 14, 15, 16, 17, 18, 19, 20, 21, 22, 23, 24, 25, 26, 27, 28, 29, 30, 31, 32, 33, 34, 35, 36, 37, 38, 39, 40, 41, 42, 43, 44, 45, 46, 47, 48, 49, 50, 51, 52, 53, 54, 55, 56, 57, 58, 59, 60, 61, 62, 63, 64, 65, 66, 67, 68, 69, 70, 71, 72, 73, 74, 75, 76, 77, 78, 79, 80, 81, 82, 83, 84, 85, 86, 87, 88, 89, 90, 91, 92, 93, 94, 95, 96, 97, 98, 99, 100, 101, 102, 103, 104, 105, 106, 107, 108, 109, 110, 111, 112, 113, 114, 115, 116, 117, 118, 119, 120, 121, 122, 123, 124, 125, 126, 127, 128, 129, 130, 131, 132, 133, 134, 135, 136, 137, 138, 139, 140, 141, 142, 143, 144, 145, 146, 147, 148, 149, 150, 151, 152, 153, 154, 155, 156, 157, 158, 159, 160, 161, 162, 163, 164, 165, 166, 167, 168, 169, 170, 171, 172, 173, 174, 175, 176, 177, 178, 179, 180, 181, 182, 183, 184, 185, 186, 187, 188, 189, 190, 191, 192, 193, 194, 195, 196, 197, 198, 199, 200, 201, 202, 203, 204, 205, 206, 207, 208, 209, 210],
      "AcquisitionTime": ["121712.510000", "121714.517500", "121716.527500", "121718.535000", "121720.542500", "121722.550000", "121724.557500", "121726.567500", "121728.575000", "121730.582500", "121732.590000", "121734.597500", "121736.607500", "121738.615000", "121740.622500", "121742.630000", "121744.640000", "121746.647500", "121748.655000", "121750.662500", "121752.670000", "121754.680000", "121756.687500", "121758.695000", "121800.702500", "121802.710000", "121804.720000", "121806.727500", "121808.735000", "121810.742500", "121812.752500", "121814.760000", "121816.767500", "121818.775000", "121820.782500", "121822.792500", "121824.800000", "121826.807500", "121828.815000", "121830.822500", "121832.832500", "121834.840000", "121836.847500", "121838.855000", "121840.865000", "121842.872500", "121844.880000", "121846.887500", "121848.895000", "121850.905000", "121852.912500", "121854.920000", "121856.927500", "121858.935000", "121900.945000", "121902.952500", "121904.960000", "121906.967500", "121908.975000", "121910.985000", "121912.992500", "121915.000000", "121917.007500", "121919.017500", "121921.025000", "121923.032500", "121925.040000", "121927.047500", "121929.057500", "121931.065000", "121933.072500", "121935.080000", "121937.087500", "121939.097500", "121941.105000", "121943.112500", "121945.120000", "121947.130000", "121949.137500", "121951.145000", "121953.152500", "121955.160000", "121957.170000", "121959.177500", "122001.185000", "122003.192500", "122005.200000", "122007.210000", "122009.217500", "122011.225000", "122013.232500", "122015.242500", "122017.250000", "122019.257500", "122021.265000", "122023.272500", "122025.282500", "122027.290000", "122029.297500", "122031.305000", "122033.312500", "122035.322500", "122037.330000", "122039.337500", "122041.345000", "122043.355000", "122045.362500", "122047.370000", "122049.377500", "122051.385000", "122053.395000", "122055.402500", "122057.410000", "122059.417500", "122101.425000", "122103.435000", "122105.442500", "122107.450000", "122109.457500", "122111.465000", "122113.475000", "122115.482500", "122117.490000", "122119.497500", "122121.507500", "122123.515000", "122125.522500", "122127.530000", "122129.537500", "122131.547500", "122133.555000", "122135.562500", "122137.570000", "122139.577500", "122141.587500", "122143.595000", "122145.602500", "122147.610000", "122149.620000", "122151.627500", "122153.635000", "122155.642500", "122157.650000", "122159.660000", "122201.667500", "122203.675000", "122205.682500", "122207.690000", "122209.700000", "122211.707500", "122213.715000", "122215.722500", "122217.732500", "122219.740000", "122221.747500", "122223.755000", "122225.762500", "122227.772500", "122229.780000", "122231.787500", "122233.795000", "122235.802500", "122237.812500", "122239.820000", "122241.827500", "122243.835000", "122245.842500", "122247.852500", "122249.860000", "122251.867500", "122253.875000", "122255.885000", "122257.892500", "122259.900000", "122301.907500", "122303.915000", "122305.925000", "122307.932500", "122309.940000", "122311.947500", "122313.955000", "122315.965000", "122317.972500", "122319.980000", "122321.987500", "122323.997500", "122326.005000", "122328.012500", "122330.020000", "122332.027500", "122334.037500", "122336.045000", "122338.052500", "122340.060000", "122342.067500", "122344.077500", "122346.085000", "122348.092500", "122350.100000", "122352.110000", "122354.117500", "122356.125000", "122358.132500", "122400.140000", "122402.150000", "122404.157500", "122406.165000", "122408.172500", "122410.180000", "122412.190000"],
      "ContentTime": ["121715.218000", "121717.203000", "121719.203000", "121721.203000", "121723.203000", "121725.203000", "121727.203000", "121729.203000", "121731.203000", "121733.203000", "121735.203000", "121737.203000", "121739.203000", "121741.203000", "121743.203000", "121745.203000", "121747.203000", "121749.203000", "121751.203000", "121753.203000", "121755.203000", "121757.203000", "121759.203000", "121801.203000", "121803.203000", "121805.203000", "121807.203000", "121809.203000", "121811.203000", "121813.203000", "121815.203000", "121817.203000", "121819.203000", "121821.203000", "121823.203000", "121825.203000", "121827.203000", "121829.203000", "121831.203000", "121833.203000", "121835.203000", "121837.203000", "121839.203000", "121841.203000", "121843.203000", "121845.203000", "121847.203000", "121849.203000", "121851.203000", "121853.203000", "121855.203000", "121857.203000", "121859.203000", "121901.203000", "121903.203000", "121905.203000", "121907.203000", "121909.203000", "121911.203000", "121913.203000", "121915.203000", "121917.203000", "121919.203000", "121921.203000", "121923.203000", "121925.203000", "121927.203000", "121929.203000", "121931.203000", "121933.203000", "121935.203000", "121937.203000", "121939.203000", "121941.203000", "121943.203000", "121945.203000", "121947.203000", "121949.203000", "121951.203000", "121953.203000", "121955.203000", "121957.203000", "121959.203000", "122001.203000", "122003.203000", "122005.203000", "122007.203000", "122009.203000", "122011.203000", "122013.203000", "122015.203000", "122017.203000", "122019.203000", "122021.203000", "122023.203000", "122025.203000", "122027.203000", "122029.203000", "122031.203000", "122033.203000", "122035.203000", "122037.203000", "122039.203000", "122041.203000", "122043.203000", "122045.203000", "122047.203000", "122049.203000", "122051.203000", "122053.203000", "122055.203000", "122057.203000", "122059.203000", "122101.203000", "122103.203000", "122105.203000", "122107.203000", "122109.203000", "122111.203000", "122113.203000", "122115.203000", "122117.203000", "122119.203000", "122121.203000", "122123.203000", "122125.203000", "122127.203000", "122129.203000", "122131.203000", "122133.203000", "122135.203000", "122137.203000", "122139.203000", "122141.203000", "122143.203000", "122145.203000", "122147.203000", "122149.203000", "122151.203000", "122153.203000", "122155.203000", "122157.203000", "122159.203000", "122201.203000", "122203.203000", "122205.203000", "122207.203000", "122209.203000", "122211.203000", "122213.203000", "122215.203000", "122217.203000", "122219.203000", "122221.203000", "122223.203000", "122225.203000", "122227.203000", "122229.203000", "122231.203000", "122233.203000", "122235.203000", "122237.203000", "122239.203000", "122241.203000", "122243.203000", "122245.203000", "122247.203000", "122249.203000", "122251.203000", "122253.203000", "122255.203000", "122257.203000", "122259.203000", "122301.203000", "122303.203000", "122305.203000", "122307.203000", "122309.203000", "122311.203000", "122313.203000", "122315.203000", "122317.203000", "122319.203000", "122321.203000", "122323.203000", "122325.203000", "122327.203000", "122329.203000", "122331.203000", "122333.203000", "122335.203000", "122337.203000", "122339.203000", "122341.203000", "122343.203000", "122345.203000", "122347.203000", "122349.203000", "122351.203000", "122353.203000", "122355.203000", "122357.203000", "122359.203000", "122401.203000", "122403.203000", "122405.203000", "122407.203000", "122409.203000", "122411.203000", "122412.921000"],
      "InstanceCreationTime": ["121715.218000", "121717.203000", "121719.203000", "121721.203000", "121723.203000", "121725.203000", "121727.203000", "121729.203000", "121731.203000", "121733.203000", "121735.203000", "121737.203000", "121739.203000", "121741.203000", "121743.203000", "121745.203000", "121747.203000", "121749.203000", "121751.203000", "121753.203000", "121755.203000", "121757.203000", "121759.203000", "121801.203000", "121803.203000", "121805.203000", "121807.203000", "121809.203000", "121811.203000", "121813.203000", "121815.203000", "121817.203000", "121819.203000", "121821.203000", "121823.203000", "121825.203000", "121827.203000", "121829.203000", "121831.203000", "121833.203000", "121835.203000", "121837.203000", "121839.203000", "121841.203000", "121843.203000", "121845.203000", "121847.203000", "121849.203000", "121851.203000", "121853.203000", "121855.203000", "121857.203000", "121859.203000", "121901.203000", "121903.203000", "121905.203000", "121907.203000", "121909.203000", "121911.203000", "121913.203000", "121915.203000", "121917.203000", "121919.203000", "121921.203000", "121923.203000", "121925.203000", "121927.203000", "121929.203000", "121931.203000", "121933.203000", "121935.203000", "121937.203000", "121939.203000", "121941.203000", "121943.203000", "121945.203000", "121947.203000", "121949.203000", "121951.203000", "121953.203000", "121955.203000", "121957.203000", "121959.203000", "122001.203000", "122003.203000", "122005.203000", "122007.203000", "122009.203000", "122011.203000", "122013.203000", "122015.203000", "122017.203000", "122019.203000", "122021.203000", "122023.203000", "122025.203000", "122027.203000", "122029.203000", "122031.203000", "122033.203000", "122035.203000", "122037.203000", "122039.203000", "122041.203000", "122043.203000", "122045.203000", "122047.203000", "122049.203000", "122051.203000", "122053.203000", "122055.203000", "122057.203000", "122059.203000", "122101.203000", "122103.203000", "122105.203000", "122107.203000", "122109.203000", "122111.203000", "122113.203000", "122115.203000", "122117.203000", "122119.203000", "122121.203000", "122123.203000", "122125.203000", "122127.203000", "122129.203000", "122131.203000", "122133.203000", "122135.203000", "122137.203000", "122139.203000", "122141.203000", "122143.203000", "122145.203000", "122147.203000", "122149.203000", "122151.203000", "122153.203000", "122155.203000", "122157.203000", "122159.203000", "122201.203000", "122203.203000", "122205.203000", "122207.203000", "122209.203000", "122211.203000", "122213.203000", "122215.203000", "122217.203000", "122219.203000", "122221.203000", "122223.203000", "122225.203000", "122227.203000", "122229.203000", "122231.203000", "122233.203000", "122235.203000", "122237.203000", "122239.203000", "122241.203000", "122243.203000", "122245.203000", "122247.203000", "122249.203000", "122251.203000", "122253.203000", "122255.203000", "122257.203000", "122259.203000", "122301.203000", "122303.203000", "122305.203000", "122307.203000", "122309.203000", "122311.203000", "122313.203000", "122315.203000", "122317.203000", "122319.203000", "122321.203000", "122323.203000", "122325.203000", "122327.203000", "122329.203000", "122331.203000", "122333.203000", "122335.203000", "122337.203000", "122339.203000", "122341.203000", "122343.203000", "122345.203000", "122347.203000", "122349.203000", "122351.203000", "122353.203000", "122355.203000", "122357.203000", "122359.203000", "122401.203000", "122403.203000", "122405.203000", "122407.203000", "122409.203000", "122411.203000", "122412.921000"],
      "InstanceNumber": [1, 2, 3, 4, 5, 6, 7, 8, 9, 10, 11, 12, 13, 14, 15, 16, 17, 18, 19, 20, 21, 22, 23, 24, 25, 26, 27, 28, 29, 30, 31, 32, 33, 34, 35, 36, 37, 38, 39, 40, 41, 42, 43, 44, 45, 46, 47, 48, 49, 50, 51, 52, 53, 54, 55, 56, 57, 58, 59, 60, 61, 62, 63, 64, 65, 66, 67, 68, 69, 70, 71, 72, 73, 74, 75, 76, 77, 78, 79, 80, 81, 82, 83, 84, 85, 86, 87, 88, 89, 90, 91, 92, 93, 94, 95, 96, 97, 98, 99, 100, 101, 102, 103, 104, 105, 106, 107, 108, 109, 110, 111, 112, 113, 114, 115, 116, 117, 118, 119, 120, 121, 122, 123, 124, 125, 126, 127, 128, 129, 130, 131, 132, 133, 134, 135, 136, 137, 138, 139, 140, 141, 142, 143, 144, 145, 146, 147, 148, 149, 150, 151, 152, 153, 154, 155, 156, 157, 158, 159, 160, 161, 162, 163, 164, 165, 166, 167, 168, 169, 170, 171, 172, 173, 174, 175, 176, 177, 178, 179, 180, 181, 182, 183, 184, 185, 186, 187, 188, 189, 190, 191, 192, 193, 194, 195, 196, 197, 198, 199, 200, 201, 202, 203, 204, 205, 206, 207, 208, 209, 210],
      "LargestImagePixelValue": [1884, 1808, 1783, 1754, 1743, 1759, 1755, 1733, 1756, 1745, 1760, 1763, 1751, 1751, 1739, 1733, 1739, 1740, 1753, 1832, 1770, 1767, 1748, 1726, 1733, 1763, 1798, 1775, 1787, 1755, 1761, 1792, 1781, 1777, 1771, 1807, 1754, 1774, 1782, 1771, 1756, 1752, 1705, 1744, 1741, 1762, 1764, 1771, 1776, 1762, 1767, 1747, 1752, 1788, 1935, 1803, 1776, 1778, 1782, 1784, 1813, 1781, 1786, 1759, 1788, 1771, 1786, 1761, 1771, 1726, 1755, 1712, 1752, 1764, 1774, 1791, 1754, 1766, 1771, 1767, 1785, 1755, 1761, 1747, 1769, 1801, 1785, 1762, 1756, 1787, 1758, 1787, 1747, 1762, 1794, 1757, 1763, 1755, 1720, 1733, 1761, 1766, 1756, 1729, 1756, 1754, 1744, 1729, 1698, 1713, 1700, 1772, 1812, 1799, 1776, 1824, 1792, 1762, 1780, 1773, 1776, 1770, 1755, 1736, 1752, 1764, 1742, 1694, 1747, 1742, 1768, 1765, 1754, 1768, 1786, 1725, 1700, 1704, 1736, 1774, 1837, 1798, 1779, 1802, 1776, 1766, 1760, 1760, 1750, 1761, 1744, 1754, 1781, 1741, 1759, 1746, 1753, 1743, 1778, 1728, 1751, 1768, 1742, 1733, 1752, 1768, 1789, 1773, 1757, 1756, 1745, 1757, 1747, 1786, 1767, 1727, 1724, 1735, 1770, 1753, 1743, 1763, 1775, 1783, 1780, 1749, 1793, 1739, 1770, 1731, 1760, 1784, 1800, 1786, 1776, 1774, 1743, 1756, 1728, 1753, 1737, 1726, 1778, 1766, 1782, 1759, 1758, 1763, 1758, 1777],
      "WindowCenter": [729.0, 727.0, 726.0, 726.0, 725.0, 725.0, 725.0, 726.0, 726.0, 726.0, 725.0, 724.0, 725.0, 726.0, 725.0, 726.0, 726.0, 725.0, 724.0, 723.0, 723.0, 724.0, 726.0, 727.0, 726.0, 725.0, 723.0, 723.0, 725.0, 726.0, 726.0, 725.0, 724.0, 724.0, 724.0, 724.0, 725.0, 724.0, 723.0, 723.0, 723.0, 725.0, 726.0, 725.0, 724.0, 724.0, 724.0, 725.0, 725.0, 726.0, 725.0, 725.0, 725.0, 724.0, 724.0, 724.0, 726.0, 726.0, 725.0, 724.0, 723.0, 723.0, 724.0, 723.0, 723.0, 724.0, 725.0, 726.0, 726.0, 725.0, 725.0, 727.0, 726.0, 725.0, 724.0, 724.0, 726.0, 726.0, 725.0, 724.0, 723.0, 723.0, 723.0, 724.0, 724.0, 724.0, 725.0, 725.0, 725.0, 724.0, 723.0, 724.0, 726.0, 725.0, 724.0, 724.0, 724.0, 725.0, 726.0, 726.0, 725.0, 725.0, 724.0, 725.0, 725.0, 725.0, 725.0, 726.0, 729.0, 730.0, 728.0, 727.0, 725.0, 723.0, 722.0, 723.0, 724.0, 724.0, 723.0, 723.0, 724.0, 726.0, 725.0, 725.0, 724.0, 725.0, 726.0, 729.0, 728.0, 727.0, 726.0, 725.0, 725.0, 725.0, 726.0, 728.0, 730.0, 729.0, 728.0, 726.0, 725.0, 724.0, 724.0, 725.0, 725.0, 726.0, 726.0, 726.0, 726.0, 726.0, 726.0, 726.0, 726.0, 726.0, 726.0, 727.0, 727.0, 727.0, 727.0, 726.0, 725.0, 725.0, 728.0, 728.0, 726.0, 724.0, 724.0, 724.0, 725.0, 726.0, 726.0, 724.0, 724.0, 724.0, 725.0, 727.0, 727.0, 726.0, 725.0, 724.0, 725.0, 725.0, 726.0, 725.0, 725.0, 725.0, 726.0, 726.0, 726.0, 725.0, 723.0, 721.0, 721.0, 721.0, 722.0, 723.0, 723.0, 724.0, 725.0, 727.0, 728.0, 728.0, 727.0, 727.0, 727.0, 727.0, 726.0, 725.0, 723.0, 723.0],
      "WindowWidth": [1544.0, 1539.0, 1536.0, 1534.0, 1533.0, 1533.0, 1533.0, 1535.0, 1536.0, 1536.0, 1534.0, 1532.0, 1533.0, 1535.0, 1534.0, 1536.0, 1537.0, 1534.0, 1531.0, 1529.0, 1528.0, 1530.0, 1537.0, 1537.0, 1535.0, 1532.0, 1529.0, 1529.0, 1533.0, 1536.0, 1536.0, 1534.0, 1531.0, 1530.0, 1530.0, 1532.0, 1532.0, 1531.0, 1529.0, 1529.0, 1529.0, 1533.0, 1536.0, 1534.0, 1531.0, 1530.0, 1531.0, 1533.0, 1534.0, 1534.0, 1534.0, 1534.0, 1534.0, 1530.0, 1531.0, 1532.0, 1536.0, 1536.0, 1533.0, 1530.0, 1528.0, 1529.0, 1530.0, 1529.0, 1529.0, 1531.0, 1534.0, 1536.0, 1535.0, 1534.0, 1535.0, 1538.0, 1536.0, 1532.0, 1530.0, 1531.0, 1535.0, 1536.0, 1533.0, 1530.0, 1528.0, 1528.0, 1529.0, 1531.0, 1531.0, 1532.0, 1533.0, 1534.0, 1533.0, 1530.0, 1529.0, 1532.0, 1535.0, 1534.0, 1532.0, 1530.0, 1531.0, 1534.0, 1536.0, 1535.0, 1534.0, 1533.0, 1532.0, 1533.0, 1533.0, 1534.0, 1534.0, 1536.0, 1545.0, 1545.0, 1540.0, 1537.0, 1532.0, 1528.0, 1527.0, 1529.0, 1531.0, 1530.0, 1529.0, 1528.0, 1530.0, 1535.0, 1534.0, 1532.0, 1530.0, 1533.0, 1536.0, 1542.0, 1542.0, 1538.0, 1536.0, 1534.0, 1532.0, 1533.0, 1535.0, 1541.0, 1547.0, 1544.0, 1539.0, 1536.0, 1534.0, 1532.0, 1530.0, 1533.0, 1534.0, 1536.0, 1536.0, 1536.0, 1537.0, 1537.0, 1535.0, 1535.0, 1535.0, 1536.0, 1537.0, 1537.0, 1537.0, 1537.0, 1538.0, 1537.0, 1534.0, 1534.0, 1540.0, 1540.0, 1536.0, 1532.0, 1530.0, 1531.0, 1534.0, 1537.0, 1535.0, 1531.0, 1530.0, 1531.0, 1533.0, 1538.0, 1538.0, 1535.0, 1533.0, 1532.0, 1534.0, 1534.0, 1535.0, 1534.0, 1533.0, 1534.0, 1536.0, 1536.0, 1537.0, 1533.0, 1528.0, 1524.0, 1523.0, 1525.0, 1525.0, 1528.0, 1530.0, 1531.0, 1534.0, 1539.0, 1540.0, 1540.0, 1538.0, 1538.0, 1538.0, 1538.0, 1537.0, 1533.0, 1529.0, 1528.0]
    },
    "slices": {}
  }
}