{
  "AcquisitionMatrixPE": 64,
  "AcquisitionNumber": 1,
  "AcquisitionTime": "11:19:46.740000",
  "BandwidthPerPixelPhaseEncode": 30.637,
  "BaseResolution": 64,
  "BidsGuess": [
    "func",
    "_acq-epfid2_dir-AP_run-11_bold"
],
  "CoilCombinationMethod": "Sum of Squares",
  "CoilString": "C:HEA;HEP",
  "ConversionSoftware": "dcm2niix",
  "ConversionSoftwareVersion": "v1.0.20240202",
  "DerivedVendorReportedEchoSpacing": 0.000510004,
  "DeviceSerialNumber": "35119",
  "DwellTime": 3.5e-06,
  "EchoTime": 0.03,
  "EffectiveEchoSpacing": 0.000510004,
  "FlipAngle": 78,
  "HeudiconvVersion": "1.1.6",
  "ImageComments": "V",
  "ImageOrientationPatientDICOM": [0.999852, -0.007648, -0.0154, 0, 0.895641, -0.444778],
  "ImageOrientationText": "Tra>Cor(-26.4)>Sag(-1.0)",
  "ImageType": [
    "ORIGINAL",
    "PRIMARY",
    "M",
    "ND",
    "MOSAIC"
],
  "ImagingFrequency": 123.251782,
  "InPlanePhaseEncodingDirectionDICOM": "COL",
  "InstitutionAddress": "Chaucer Road  15,Cambridge,UK,GB,CB2 2EF",
  "InstitutionName": "MRC-CBU",
  "MRAcquisitionType": "2D",
  "MagneticFieldStrength": 3,
  "Manufacturer": "Siemens",
  "ManufacturersModelName": "TrioTim",
  "MatrixCoilMode": "SENSE",
  "Modality": "MR",
  "NonlinearGradientCorrection": false,
  "PartialFourier": 1,
  "PatientPosition": "HFS",
  "PercentPhaseFOV": 100,
  "PercentSampling": 100,
  "PhaseEncodingDirection": "j-",
  "PhaseEncodingSteps": 64,
  "PhaseResolution": 1,
  "PixelBandwidth": 2230,
  "ProcedureStepDescription": "CBU^Neuroimaging",
  "ProtocolName": "CBU_DWEPI_BOLD210",
  "PulseSequenceDetails": "%SiemensSeq%\\ep2d_bold",
  "ReceiveCoilName": "HeadMatrix",
  "ReconMatrixPE": 64,
  "RepetitionTime": 2,
  "SAR": 0.133899,
  "ScanOptions": "FS",
  "ScanningSequence": "EP",
  "SequenceName": "*epfid2d1_64",
  "SequenceVariant": "SK",
  "SeriesDescription": "CBU_DWEPI_BOLD210",
  "SeriesNumber": 11,
  "ShimSetting": [-7835, -8808, -2091, 857, 221, -152, -163, 88],
  "SliceThickness": 3,
  "SliceTiming": [0, 1.035, 0.0625, 1.095, 0.1225, 1.1575, 0.1825, 1.2175, 0.245, 1.2775, 0.305, 1.34, 0.365, 1.4, 0.4275, 1.46, 0.4875, 1.5225, 0.5475, 1.5825, 0.61, 1.6425, 0.67, 1.705, 0.73, 1.765, 0.7925, 1.825, 0.8525, 1.8875, 0.9125, 1.9475, 0.975],
  "SoftwareVersions": "syngo MR B15",
  "SpacingBetweenSlices": 3.75,
  "StationName": "MRC35119",
  "TaskName": "faceprocessing",
  "TotalReadoutTime": 0.0321303,
  "TxRefAmp": 327.749,
  "dcmmeta_affine": [
    [-2.999556064605713, 0.0, -0.06447950005531311, 92.73761749267578],
    [0.022943999618291855, 2.686923027038574, -1.6676706075668335, -52.4483528137207],
    [-0.04619999974966049, 1.3343340158462524, 3.358156681060791, -99.290283203125],
    [0.0, 0.0, 0.0, 1.0]
],
  "dcmmeta_reorient_transform": [
    [0.0, -1.0, 0.0, 63.0],
    [1.0, 0.0, 0.0, 0.0],
    [0.0, 0.0, 1.0, 0.0],
    [0.0, 0.0, 0.0, 1.0]
],
  "dcmmeta_shape": [64, 64, 33, 210],
  "dcmmeta_slice_dim": 2,
  "dcmmeta_version": 0.6,
  "global": {
    "const": {
      "AcquisitionMatrix": [64, 0, 0, 64],
      "AngioFlag": "N",
      "BitsAllocated": 16,
      "BitsStored": 12,
      "Columns": 384,
      "EchoNumbers": 1,
      "EchoTime": 30.0,
      "EchoTrainLength": 1,
      "FlipAngle": 78.0,
      "HighBit": 11,
      "ImageOrientationPatient": [0.999852, -0.007648, -0.0154, -0.0, 0.895641, -0.444778],
      "ImagePositionPatient": [-572.666574, -543.064435, 205.658198],
      "ImageType": [
        "ORIGINAL",
        "PRIMARY",
        "M",
        "ND",
        "MOSAIC"
],
      "ImagedNucleus": "1H",
      "ImagingFrequency": 123.251782,
      "InPlanePhaseEncodingDirection": "COL",
      "MRAcquisitionType": "2D",
      "MagneticFieldStrength": 3.0,
      "Manufacturer": "SIEMENS",
      "ManufacturerModelName": "TrioTim",
      "Modality": "MR",
      "NumberOfAverages": 1.0,
      "NumberOfPhaseEncodingSteps": 64,
      "PercentPhaseFieldOfView": 100.0,
      "PercentSampling": 100.0,
      "PerformedProcedureStepStartTime": "095652.046000",
      "PhotometricInterpretation": "MONOCHROME2",
      "PixelAspectRatio": [1, 1],
      "PixelBandwidth": 2230.0,
      "PixelRepresentation": 0,
      "PixelSpacing": [3.0, 3.0],
      "ProtocolName": "CBU_DWEPI_BOLD210",
      "RepetitionTime": 2000.0,
      "Rows": 384,
      "SAR": 0.133899,
      "SamplesPerPixel": 1,
      "ScanOptions": "FS",
      "ScanningSequence": "EP",
      "SequenceName": "*epfid2d1_64",
      "SequenceVariant": "SK",
      "SeriesDescription": "CBU_DWEPI_BOLD210",
      "SeriesNumber": 11,
      "SeriesTime": "111950.609000",
      "SliceLocation": -67.185516,
      "SliceThickness": 3.0,
      "SmallestImagePixelValue": 0,
      "SoftwareVersions": "syngo MR B15",
      "SpacingBetweenSlices": 3.75,
      "SpecificCharacterSet": "ISO_IR 100",
      "StudyID": "1",
      "StudyTime": "095651.859000",
      "TransmitCoilName": "Body",
      "VariableFlipAngleFlag": "N",
      "WindowCenterWidthExplanation": "Algo1",
      "dBdt": 0.0},
    "slices": {}
  },
  "time": {
    "samples": {
      "AcquisitionNumber": [1, 2, 3, 4, 5, 6, 7, 8, 9, 10, 11, 12, 13, 14, 15, 16, 17, 18, 19, 20, 21, 22, 23, 24, 25, 26, 27, 28, 29, 30, 31, 32, 33, 34, 35, 36, 37, 38, 39, 40, 41, 42, 43, 44, 45, 46, 47, 48, 49, 50, 51, 52, 53, 54, 55, 56, 57, 58, 59, 60, 61, 62, 63, 64, 65, 66, 67, 68, 69, 70, 71, 72, 73, 74, 75, 76, 77, 78, 79, 80, 81, 82, 83, 84, 85, 86, 87, 88, 89, 90, 91, 92, 93, 94, 95, 96, 97, 98, 99, 100, 101, 102, 103, 104, 105, 106, 107, 108, 109, 110, 111, 112, 113, 114, 115, 116, 117, 118, 119, 120, 121, 122, 123, 124, 125, 126, 127, 128, 129, 130, 131, 132, 133, 134, 135, 136, 137, 138, 139, 140, 141, 142, 143, 144, 145, 146, 147, 148, 149, 150, 151, 152, 153, 154, 155, 156, 157, 158, 159, 160, 161, 162, 163, 164, 165, 166, 167, 168, 169, 170, 171, 172, 173, 174, 175, 176, 177, 178, 179, 180, 181, 182, 183, 184, 185, 186, 187, 188, 189, 190, 191, 192, 193, 194, 195, 196, 197, 198, 199, 200, 201, 202, 203, 204, 205, 206, 207, 208, 209, 210],
      "AcquisitionTime": ["111946.740000", "111948.750000", "111950.757500", "111952.765000", "111954.772500", "111956.782500", "111958.790000", "112000.797500", "112002.805000", "112004.812500", "112006.822500", "112008.830000", "112010.837500", "112012.845000", "112014.852500", "112016.862500", "112018.870000", "112020.877500", "112022.885000", "112024.895000", "112026.902500", "112028.910000", "112030.917500", "112032.925000", "112034.935000", "112036.942500", "112038.950000", "112040.957500", "112042.965000", "112044.975000", "112046.982500", "112048.990000", "112050.997500", "112053.007500", "112055.015000", "112057.022500", "112059.030000", "112101.037500", "112103.047500", "112105.055000", "112107.062500", "112109.070000", "112111.077500", "112113.087500", "112115.095000", "112117.102500", "112119.110000", "112121.120000", "112123.127500", "112125.135000", "112127.142500", "112129.150000", "112131.160000", "112133.167500", "112135.175000", "112137.182500", "112139.190000", "112141.200000", "112143.207500", "112145.215000", "112147.222500", "112149.230000", "112151.240000", "112153.247500", "112155.255000", "112157.262500", "112159.272500", "112201.280000", "112203.287500", "112205.295000", "112207.302500", "112209.312500", "112211.320000", "112213.327500", "112215.335000", "112217.342500", "112219.352500", "112221.360000", "112223.367500", "112225.375000", "112227.385000", "112229.392500", "112231.400000", "112233.407500", "112235.415000", "112237.425000", "112239.432500", "112241.440000", "112243.447500", "112245.455000", "112247.465000", "112249.472500", "112251.480000", "112253.487500", "112255.497500", "112257.505000", "112259.512500", "112301.520000", "112303.527500", "112305.537500", "112307.545000", "112309.552500", "112311.560000", "112313.567500", "112315.577500", "112317.585000", "112319.592500", "112321.600000", "112323.607500", "112325.617500", "112327.625000", "112329.632500", "112331.640000", "112333.650000", "112335.657500", "112337.665000", "112339.672500", "112341.680000", "112343.690000", "112345.697500", "112347.705000", "112349.712500", "112351.720000", "112353.730000", "112355.737500", "112357.745000", "112359.752500", "112401.762500", "112403.770000", "112405.777500", "112407.785000", "112409.792500", "112411.802500", "112413.810000", "112415.817500", "112417.825000", "112419.832500", "112421.842500", "112423.850000", "112425.857500", "112427.865000", "112429.875000", "112431.882500", "112433.890000", "112435.897500", "112437.905000", "112439.915000", "112441.922500", "112443.930000", "112445.937500", "112447.945000", "112449.955000", "112451.962500", "112453.970000", "112455.977500", "112457.985000", "112459.995000", "112502.002500", "112504.010000", "112506.017500", "112508.027500", "112510.035000", "112512.042500", "112514.050000", "112516.057500", "112518.067500", "112520.075000", "112522.082500", "112524.090000", "112526.097500", "112528.107500", "112530.115000", "112532.122500", "112534.130000", "112536.140000", "112538.147500", "112540.155000", "112542.162500", "112544.170000", "112546.180000", "112548.187500", "112550.195000", "112552.202500", "112554.210000", "112556.220000", "112558.227500", "112600.235000", "112602.242500", "112604.252500", "112606.260000", "112608.267500", "112610.275000", "112612.282500", "112614.292500", "112616.300000", "112618.307500", "112620.315000", "112622.322500", "112624.332500", "112626.340000", "112628.347500", "112630.355000", "112632.362500", "112634.372500", "112636.380000", "112638.387500", "112640.395000", "112642.405000", "112644.412500", "112646.420000"],
      "ContentTime": ["111950.609000", "111952.593000", "111954.593000", "111956.593000", "111958.093000", "112000.593000", "112002.593000", "112004.593000", "112006.593000", "112008.593000", "112010.093000", "112012.593000", "112014.093000", "112016.593000", "112018.093000", "112020.593000", "112022.593000", "112024.593000", "112026.093000", "112028.593000", "112030.093000", "112032.593000", "112034.593000", "112036.593000", "112038.093000", "112040.093000", "112042.593000", "112044.593000", "112046.093000", "112048.093000", "112050.593000", "112052.593000", "112054.593000", "112056.593000", "112058.093000", "112100.593000", "112102.093000", "112104.593000", "112106.593000", "112108.593000", "112110.093000", "112112.593000", "112114.593000", "112116.593000", "112118.593000", "112120.093000", "112122.093000", "112124.093000", "112126.593000", "112128.093000", "112130.593000", "112132.593000", "112134.093000", "112136.593000", "112138.093000", "112140.593000", "112142.593000", "112144.093000", "112146.109000", "112148.593000", "112150.109000", "112152.593000", "112154.093000", "112156.093000", "112158.593000", "112200.593000", "112202.093000", "112204.593000", "112206.093000", "112208.593000", "112210.593000", "112212.593000", "112214.593000", "112216.093000", "112218.093000", "112220.593000", "112222.593000", "112224.093000", "112226.593000", "112228.593000", "112230.593000", "112232.593000", "112234.093000", "112236.593000", "112238.093000", "112240.593000", "112242.593000", "112244.593000", "112246.093000", "112248.593000", "112250.093000", "112252.593000", "112254.093000", "112256.093000", "112258.593000", "112300.093000", "112302.593000", "112304.093000", "112306.093000", "112308.593000", "112310.093000", "112312.593000", "112314.093000", "112316.593000", "112318.593000", "112320.093000", "112322.093000", "112324.593000", "112326.093000", "112328.593000", "112330.093000", "112332.093000", "112334.593000", "112336.093000", "112338.593000", "112340.593000", "112342.093000", "112344.593000", "112346.093000", "112348.593000", "112350.593000", "112352.093000", "112354.093000", "112356.593000", "112358.093000", "112400.593000", "112402.093000", "112404.093000", "112406.593000", "112408.093000", "112410.593000", "112412.593000", "112414.093000", "112416.593000", "112418.593000", "112420.593000", "112422.093000", "112424.093000", "112426.093000", "112428.593000", "112430.593000", "112432.093000", "112434.093000", "112436.093000", "112438.593000", "112440.593000", "112442.093000", "112444.593000", "112446.093000", "112448.593000", "112450.593000", "112452.593000", "112454.093000", "112456.093000", "112458.093000", "112500.593000", "112502.593000", "112504.593000", "112506.093000", "112508.093000", "112510.093000", "112512.593000", "112514.093000", "112516.593000", "112518.093000", "112520.593000", "112522.593000", "112524.593000", "112526.093000", "112528.093000", "112530.593000", "112532.593000", "112534.593000", "112536.093000", "112538.593000", "112540.093000", "112542.093000", "112544.593000", "112546.593000", "112548.593000", "112550.093000", "112552.593000", "112554.093000", "112556.593000", "112558.093000", "112600.093000", "112602.593000", "112604.593000", "112606.093000", "112608.093000", "112610.093000", "112612.093000", "112614.593000", "112616.593000", "112618.093000", "112620.593000", "112622.093000", "112624.593000", "112626.093000", "112628.593000", "112630.093000", "112632.093000", "112634.593000", "112636.593000", "112638.593000", "112640.093000", "112642.093000", "112644.093000", "112646.593000", "112648.078000"],
      "InstanceCreationTime": ["111950.609000", "111952.593000", "111954.593000", "111956.593000", "111958.093000", "112000.593000", "112002.593000", "112004.593000", "112006.593000", "112008.593000", "112010.093000", "112012.593000", "112014.093000", "112016.593000", "112018.093000", "112020.593000", "112022.593000", "112024.593000", "112026.093000", "112028.593000", "112030.093000", "112032.593000", "112034.593000", "112036.593000", "112038.093000", "112040.093000", "112042.593000", "112044.593000", "112046.093000", "112048.093000", "112050.593000", "112052.593000", "112054.593000", "112056.593000", "112058.093000", "112100.593000", "112102.093000", "112104.593000", "112106.593000", "112108.593000", "112110.093000", "112112.593000", "112114.593000", "112116.593000", "112118.593000", "112120.093000", "112122.093000", "112124.093000", "112126.593000", "112128.093000", "112130.593000", "112132.593000", "112134.093000", "112136.593000", "112138.093000", "112140.593000", "112142.593000", "112144.093000", "112146.109000", "112148.593000", "112150.109000", "112152.593000", "112154.093000", "112156.093000", "112158.593000", "112200.593000", "112202.093000", "112204.593000", "112206.093000", "112208.593000", "112210.593000", "112212.593000", "112214.593000", "112216.093000", "112218.093000", "112220.593000", "112222.593000", "112224.093000", "112226.593000", "112228.593000", "112230.593000", "112232.593000", "112234.093000", "112236.593000", "112238.093000", "112240.593000", "112242.593000", "112244.593000", "112246.093000", "112248.593000", "112250.093000", "112252.593000", "112254.093000", "112256.093000", "112258.593000", "112300.093000", "112302.593000", "112304.093000", "112306.093000", "112308.593000", "112310.093000", "112312.593000", "112314.093000", "112316.593000", "112318.593000", "112320.093000", "112322.093000", "112324.593000", "112326.093000", "112328.593000", "112330.093000", "112332.093000", "112334.593000", "112336.093000", "112338.593000", "112340.593000", "112342.093000", "112344.593000", "112346.093000", "112348.593000", "112350.593000", "112352.093000", "112354.093000", "112356.593000", "112358.093000", "112400.593000", "112402.093000", "112404.093000", "112406.593000", "112408.093000", "112410.593000", "112412.593000", "112414.093000", "112416.593000", "112418.593000", "112420.593000", "112422.093000", "112424.093000", "112426.093000", "112428.593000", "112430.593000", "112432.093000", "112434.093000", "112436.093000", "112438.593000", "112440.593000", "112442.093000", "112444.593000", "112446.093000", "112448.593000", "112450.593000", "112452.593000", "112454.093000", "112456.093000", "112458.093000", "112500.593000", "112502.593000", "112504.593000", "112506.093000", "112508.093000", "112510.093000", "112512.593000", "112514.093000", "112516.593000", "112518.093000", "112520.593000", "112522.593000", "112524.593000", "112526.093000", "112528.093000", "112530.593000", "112532.593000", "112534.593000", "112536.093000", "112538.593000", "112540.093000", "112542.093000", "112544.593000", "112546.593000", "112548.593000", "112550.093000", "112552.593000", "112554.093000", "112556.593000", "112558.093000", "112600.093000", "112602.593000", "112604.593000", "112606.093000", "112608.093000", "112610.093000", "112612.093000", "112614.593000", "112616.593000", "112618.093000", "112620.593000", "112622.093000", "112624.593000", "112626.093000", "112628.593000", "112630.093000", "112632.093000", "112634.593000", "112636.593000", "112638.593000", "112640.093000", "112642.093000", "112644.093000", "112646.593000", "112648.078000"],
      "InstanceNumber": [1, 2, 3, 4, 5, 6, 7, 8, 9, 10, 11, 12, 13, 14, 15, 16, 17, 18, 19, 20, 21, 22, 23, 24, 25, 26, 27, 28, 29, 30, 31, 32, 33, 34, 35, 36, 37, 38, 39, 40, 41, 42, 43, 44, 45, 46, 47, 48, 49, 50, 51, 52, 53, 54, 55, 56, 57, 58, 59, 60, 61, 62, 63, 64, 65, 66, 67, 68, 69, 70, 71, 72, 73, 74, 75, 76, 77, 78, 79, 80, 81, 82, 83, 84, 85, 86, 87, 88, 89, 90, 91, 92, 93, 94, 95, 96, 97, 98, 99, 100, 101, 102, 103, 104, 105, 106, 107, 108, 109, 110, 111, 112, 113, 114, 115, 116, 117, 118, 119, 120, 121, 122, 123, 124, 125, 126, 127, 128, 129, 130, 131, 132, 133, 134, 135, 136, 137, 138, 139, 140, 141, 142, 143, 144, 145, 146, 147, 148, 149, 150, 151, 152, 153, 154, 155, 156, 157, 158, 159, 160, 161, 162, 163, 164, 165, 166, 167, 168, 169, 170, 171, 172, 173, 174, 175, 176, 177, 178, 179, 180, 181, 182, 183, 184, 185, 186, 187, 188, 189, 190, 191, 192, 193, 194, 195, 196, 197, 198, 199, 200, 201, 202, 203, 204, 205, 206, 207, 208, 209, 210],
      "LargestImagePixelValue": [1870, 1798, 1764, 1758, 1752, 1739, 1748, 1727, 1745, 1765, 1771, 1751, 1744, 1751, 1763, 1741, 1768, 1920, 1766, 1760, 1773, 1752, 1794, 1773, 1783, 1764, 1763, 1754, 1753, 1755, 1757, 1755, 1755, 1762, 1749, 1755, 1753, 1763, 1765, 1772, 1742, 1759, 1765, 1753, 1752, 1766, 1765, 1768, 1768, 1766, 1755, 1771, 1767, 1783, 1759, 1769, 1762, 1769, 1762, 1760, 1773, 1754, 1759, 1757, 1766, 1786, 1774, 1761, 1758, 1760, 1750, 1762, 1777, 1778, 1751, 1770, 1757, 1763, 1779, 1784, 1773, 1763, 1764, 1752, 1802, 1758, 1750, 1770, 1773, 1770, 1786, 1762, 1765, 1778, 1762, 1774, 1767, 1778, 1771, 1761, 1762, 1764, 1764, 1765, 1755, 1755, 1771, 1763, 1757, 1761, 1764, 1762, 1758, 1759, 1753, 1756, 1764, 1769, 1763, 1761, 1762, 1757, 1772, 1776, 1763, 1774, 1757, 1771, 1760, 1781, 1775, 1762, 1769, 1763, 1768, 1762, 1760, 1781, 1755, 1760, 1763, 1771, 1758, 1758, 1757, 1776, 1767, 1768, 1772, 1764, 1762, 1751, 1768, 1750, 1745, 1772, 1739, 1780, 1759, 1762, 1767, 1768, 1755, 1756, 1779, 1762, 1767, 1771, 1757, 1762, 1760, 1771, 1751, 1771, 1768, 1777, 1770, 1755, 1768, 1762, 1766, 1767, 1768, 1760, 1759, 1774, 1773, 1765, 1762, 1765, 1758, 1754, 1758, 1758, 1749, 1744, 1759, 1748, 1766, 1764, 1762, 1768, 1772, 1743, 1751, 1762, 1744, 1768, 1750, 1738],
      "WindowCenter": [714.0, 711.0, 712.0, 711.0, 711.0, 710.0, 710.0, 710.0, 711.0, 711.0, 711.0, 711.0, 710.0, 711.0, 712.0, 711.0, 710.0, 711.0, 710.0, 711.0, 711.0, 710.0, 710.0, 710.0, 709.0, 709.0, 710.0, 710.0, 710.0, 709.0, 709.0, 709.0, 709.0, 708.0, 708.0, 708.0, 708.0, 708.0, 708.0, 709.0, 708.0, 709.0, 708.0, 708.0, 708.0, 708.0, 708.0, 708.0, 709.0, 709.0, 709.0, 709.0, 708.0, 709.0, 709.0, 708.0, 708.0, 708.0, 708.0, 708.0, 708.0, 708.0, 709.0, 710.0, 709.0, 708.0, 710.0, 709.0, 710.0, 709.0, 709.0, 709.0, 711.0, 711.0, 711.0, 710.0, 711.0, 711.0, 711.0, 712.0, 712.0, 712.0, 712.0, 711.0, 711.0, 711.0, 711.0, 711.0, 710.0, 710.0, 709.0, 709.0, 709.0, 710.0, 709.0, 709.0, 709.0, 709.0, 709.0, 709.0, 709.0, 709.0, 709.0, 709.0, 709.0, 709.0, 710.0, 710.0, 710.0, 709.0, 709.0, 710.0, 711.0, 710.0, 709.0, 709.0, 709.0, 709.0, 709.0, 709.0, 709.0, 709.0, 709.0, 709.0, 709.0, 709.0, 709.0, 709.0, 708.0, 709.0, 710.0, 709.0, 709.0, 708.0, 709.0, 709.0, 709.0, 709.0, 708.0, 708.0, 708.0, 708.0, 709.0, 709.0, 708.0, 708.0, 708.0, 707.0, 706.0, 705.0, 705.0, 706.0, 707.0, 707.0, 708.0, 708.0, 708.0, 708.0, 708.0, 708.0, 709.0, 709.0, 709.0, 710.0, 710.0, 711.0, 710.0, 710.0, 709.0, 710.0, 710.0, 710.0, 709.0, 709.0, 709.0, 709.0, 709.0, 709.0, 709.0, 710.0, 709.0, 709.0, 710.0, 711.0, 711.0, 710.0, 709.0, 709.0, 709.0, 709.0, 709.0, 709.0, 709.0, 709.0, 709.0, 709.0, 710.0, 710.0, 709.0, 709.0, 709.0, 709.0, 708.0, 709.0, 709.0, 709.0, 708.0, 709.0, 710.0, 711.0],
      "WindowWidth": [1497.0, 1490.0, 1491.0, 1488.0, 1488.0, 1487.0, 1486.0, 1486.0, 1489.0, 1490.0, 1490.0, 1488.0, 1487.0, 1488.0, 1491.0, 1490.0, 1488.0, 1488.0, 1487.0, 1489.0, 1489.0, 1487.0, 1487.0, 1486.0, 1486.0, 1486.0, 1486.0, 1487.0, 1488.0, 1486.0, 1486.0, 1485.0, 1485.0, 1484.0, 1483.0, 1483.0, 1483.0, 1483.0, 1483.0, 1484.0, 1483.0, 1484.0, 1484.0, 1483.0, 1483.0, 1482.0, 1482.0, 1483.0, 1486.0, 1486.0, 1486.0, 1485.0, 1484.0, 1485.0, 1485.0, 1483.0, 1483.0, 1483.0, 1483.0, 1483.0, 1483.0, 1483.0, 1484.0, 1487.0, 1485.0, 1484.0, 1488.0, 1485.0, 1487.0, 1486.0, 1485.0, 1486.0, 1489.0, 1491.0, 1490.0, 1488.0, 1490.0, 1489.0, 1490.0, 1491.0, 1493.0, 1493.0, 1492.0, 1490.0, 1489.0, 1489.0, 1489.0, 1490.0, 1487.0, 1486.0, 1484.0, 1484.0, 1486.0, 1487.0, 1485.0, 1485.0, 1484.0, 1485.0, 1485.0, 1485.0, 1484.0, 1484.0, 1486.0, 1486.0, 1486.0, 1485.0, 1488.0, 1487.0, 1487.0, 1485.0, 1486.0, 1488.0, 1489.0, 1486.0, 1486.0, 1485.0, 1486.0, 1485.0, 1486.0, 1485.0, 1485.0, 1484.0, 1485.0, 1485.0, 1485.0, 1485.0, 1484.0, 1484.0, 1483.0, 1485.0, 1486.0, 1486.0, 1484.0, 1483.0, 1485.0, 1485.0, 1485.0, 1484.0, 1483.0, 1483.0, 1483.0, 1483.0, 1485.0, 1486.0, 1483.0, 1482.0, 1482.0, 1480.0, 1478.0, 1476.0, 1475.0, 1479.0, 1480.0, 1481.0, 1482.0, 1483.0, 1483.0, 1484.0, 1482.0, 1483.0, 1486.0, 1486.0, 1485.0, 1488.0, 1489.0, 1489.0, 1487.0, 1487.0, 1486.0, 1487.0, 1488.0, 1487.0, 1486.0, 1485.0, 1484.0, 1485.0, 1485.0, 1486.0, 1486.0, 1487.0, 1486.0, 1486.0, 1487.0, 1489.0, 1489.0, 1487.0, 1485.0, 1485.0, 1485.0, 1485.0, 1486.0, 1486.0, 1486.0, 1485.0, 1486.0, 1486.0, 1487.0, 1487.0, 1486.0, 1486.0, 1486.0, 1486.0, 1484.0, 1484.0, 1486.0, 1485.0, 1484.0, 1484.0, 1487.0, 1489.0]
    },
    "slices": {}
  }
}