{
  "AcquisitionMatrixPE": 64,
  "AcquisitionNumber": 1,
  "AcquisitionTime": "18:32:52.397500",
  "BandwidthPerPixelPhaseEncode": 30.637,
  "BaseResolution": 64,
  "BidsGuess": [
    "func",
    "_acq-epfid2_dir-AP_run-11_bold"
],
  "CoilCombinationMethod": "Sum of Squares",
  "CoilString": "C:HEA;HEP",
  "ConversionSoftware": "dcm2niix",
  "ConversionSoftwareVersion": "v1.0.20240202",
  "DerivedVendorReportedEchoSpacing": 0.000510004,
  "DeviceSerialNumber": "35119",
  "DwellTime": 3.5e-06,
  "EchoTime": 0.03,
  "EffectiveEchoSpacing": 0.000510004,
  "FlipAngle": 78,
  "HeudiconvVersion": "1.1.6",
  "ImageComments": "V",
  "ImageOrientationPatientDICOM": [0.999864, 0.005398, 0.015583, 0, 0.94491, -0.32733],
  "ImageOrientationText": "Tra>Cor(-19.1)>Sag(0.9)",
  "ImageType": [
    "ORIGINAL",
    "PRIMARY",
    "M",
    "ND",
    "MOSAIC"
],
  "ImagingFrequency": 123.251888,
  "InPlanePhaseEncodingDirectionDICOM": "COL",
  "InstitutionAddress": "Chaucer Road  15,Cambridge,UK,GB,CB2 2EF",
  "InstitutionName": "MRC-CBU",
  "MRAcquisitionType": "2D",
  "MagneticFieldStrength": 3,
  "Manufacturer": "Siemens",
  "ManufacturersModelName": "TrioTim",
  "MatrixCoilMode": "SENSE",
  "Modality": "MR",
  "NonlinearGradientCorrection": false,
  "PartialFourier": 1,
  "PatientPosition": "HFS",
  "PercentPhaseFOV": 100,
  "PercentSampling": 100,
  "PhaseEncodingDirection": "j-",
  "PhaseEncodingSteps": 64,
  "PhaseResolution": 1,
  "PixelBandwidth": 2230,
  "ProcedureStepDescription": "CBU^Neuroimaging",
  "ProtocolName": "CBU_DWEPI_BOLD210",
  "PulseSequenceDetails": "%SiemensSeq%\\ep2d_bold",
  "ReceiveCoilName": "HeadMatrix",
  "ReconMatrixPE": 64,
  "RepetitionTime": 2,
  "SAR": 0.114176,
  "ScanOptions": "FS",
  "ScanningSequence": "EP",
  "SequenceName": "*epfid2d1_64",
  "SequenceVariant": "SK",
  "SeriesDescription": "CBU_DWEPI_BOLD210",
  "SeriesNumber": 11,
  "ShimSetting": [-7785, -8818, -2078, 923, 191, 107, -108, -53],
  "SliceThickness": 3,
  "SliceTiming": [0, 1.0325, 0.06, 1.095, 0.12, 1.155, 0.1825, 1.215, 0.2425, 1.2775, 0.3025, 1.3375, 0.365, 1.3975, 0.425, 1.46, 0.485, 1.52, 0.5475, 1.58, 0.6075, 1.6425, 0.6675, 1.7025, 0.73, 1.7625, 0.79, 1.825, 0.85, 1.885, 0.9125, 1.945, 0.9725],
  "SoftwareVersions": "syngo MR B15",
  "SpacingBetweenSlices": 3.75,
  "StationName": "MRC35119",
  "TaskName": "faceprocessing",
  "TotalReadoutTime": 0.0321303,
  "TxRefAmp": 295.172,
  "dcmmeta_affine": [
    [-2.9995920658111572, 0.0, 0.06184297427535057, 96.6086654663086],
    [-0.016194000840187073, 2.8347299098968506, -1.2273205518722534, -59.0399284362793],
    [0.04674899950623512, 0.9819899797439575, 3.5429306030273438, -71.94488525390625],
    [0.0, 0.0, 0.0, 1.0]
],
  "dcmmeta_reorient_transform": [
    [0.0, -1.0, 0.0, 63.0],
    [1.0, 0.0, 0.0, 0.0],
    [0.0, 0.0, 1.0, 0.0],
    [0.0, 0.0, 0.0, 1.0]
],
  "dcmmeta_shape": [64, 64, 33, 210],
  "dcmmeta_slice_dim": 2,
  "dcmmeta_version": 0.6,
  "global": {
    "const": {
      "AcquisitionMatrix": [64, 0, 0, 64],
      "AngioFlag": "N",
      "BitsAllocated": 16,
      "BitsStored": 12,
      "Columns": 384,
      "EchoNumbers": 1,
      "EchoTime": 30.0,
      "EchoTrainLength": 1,
      "FlipAngle": 78.0,
      "HighBit": 11,
      "ImageOrientationPatient": [0.999864, 0.005398, 0.015583, -0.0, 0.94491, -0.32733],
      "ImagePositionPatient": [-576.543383, -575.6959, 139.559042],
      "ImageType": [
        "ORIGINAL",
        "PRIMARY",
        "M",
        "ND",
        "MOSAIC"
],
      "ImagedNucleus": "1H",
      "ImagingFrequency": 123.251888,
      "InPlanePhaseEncodingDirection": "COL",
      "MRAcquisitionType": "2D",
      "MagneticFieldStrength": 3.0,
      "Manufacturer": "SIEMENS",
      "ManufacturerModelName": "TrioTim",
      "Modality": "MR",
      "NumberOfAverages": 1.0,
      "NumberOfPhaseEncodingSteps": 64,
      "PercentPhaseFieldOfView": 100.0,
      "PercentSampling": 100.0,
      "PerformedProcedureStepStartTime": "172442.656000",
      "PhotometricInterpretation": "MONOCHROME2",
      "PixelAspectRatio": [1, 1],
      "PixelBandwidth": 2230.0,
      "PixelRepresentation": 0,
      "PixelSpacing": [3.0, 3.0],
      "ProtocolName": "CBU_DWEPI_BOLD210",
      "RepetitionTime": 2000.0,
      "Rows": 384,
      "SAR": 0.114176,
      "SamplesPerPixel": 1,
      "ScanOptions": "FS",
      "ScanningSequence": "EP",
      "SequenceName": "*epfid2d1_64",
      "SequenceVariant": "SK",
      "SeriesDescription": "CBU_DWEPI_BOLD210",
      "SeriesNumber": 11,
      "SeriesTime": "183255.843000",
      "SliceLocation": -47.055935,
      "SliceThickness": 3.0,
      "SmallestImagePixelValue": 0,
      "SoftwareVersions": "syngo MR B15",
      "SpacingBetweenSlices": 3.75,
      "SpecificCharacterSet": "ISO_IR 100",
      "StudyID": "1",
      "StudyTime": "172442.609000",
      "TransmitCoilName": "Body",
      "VariableFlipAngleFlag": "N",
      "WindowCenterWidthExplanation": "Algo1",
      "dBdt": 0.0},
    "slices": {}
  },
  "time": {
    "samples": {
      "AcquisitionNumber": [1, 2, 3, 4, 5, 6, 7, 8, 9, 10, 11, 12, 13, 14, 15, 16, 17, 18, 19, 20, 21, 22, 23, 24, 25, 26, 27, 28, 29, 30, 31, 32, 33, 34, 35, 36, 37, 38, 39, 40, 41, 42, 43, 44, 45, 46, 47, 48, 49, 50, 51, 52, 53, 54, 55, 56, 57, 58, 59, 60, 61, 62, 63, 64, 65, 66, 67, 68, 69, 70, 71, 72, 73, 74, 75, 76, 77, 78, 79, 80, 81, 82, 83, 84, 85, 86, 87, 88, 89, 90, 91, 92, 93, 94, 95, 96, 97, 98, 99, 100, 101, 102, 103, 104, 105, 106, 107, 108, 109, 110, 111, 112, 113, 114, 115, 116, 117, 118, 119, 120, 121, 122, 123, 124, 125, 126, 127, 128, 129, 130, 131, 132, 133, 134, 135, 136, 137, 138, 139, 140, 141, 142, 143, 144, 145, 146, 147, 148, 149, 150, 151, 152, 153, 154, 155, 156, 157, 158, 159, 160, 161, 162, 163, 164, 165, 166, 167, 168, 169, 170, 171, 172, 173, 174, 175, 176, 177, 178, 179, 180, 181, 182, 183, 184, 185, 186, 187, 188, 189, 190, 191, 192, 193, 194, 195, 196, 197, 198, 199, 200, 201, 202, 203, 204, 205, 206, 207, 208, 209, 210],
      "AcquisitionTime": ["183252.397500", "183254.405000", "183256.412500", "183258.420000", "183300.430000", "183302.437500", "183304.445000", "183306.452500", "183308.462500", "183310.470000", "183312.477500", "183314.485000", "183316.492500", "183318.502500", "183320.510000", "183322.517500", "183324.525000", "183326.532500", "183328.542500", "183330.550000", "183332.557500", "183334.565000", "183336.575000", "183338.582500", "183340.590000", "183342.597500", "183344.605000", "183346.615000", "183348.622500", "183350.630000", "183352.637500", "183354.645000", "183356.655000", "183358.662500", "183400.670000", "183402.677500", "183404.685000", "183406.695000", "183408.702500", "183410.710000", "183412.717500", "183414.727500", "183416.735000", "183418.742500", "183420.750000", "183422.757500", "183424.767500", "183426.775000", "183428.782500", "183430.790000", "183432.797500", "183434.807500", "183436.815000", "183438.822500", "183440.830000", "183442.840000", "183444.847500", "183446.855000", "183448.862500", "183450.870000", "183452.880000", "183454.887500", "183456.895000", "183458.902500", "183500.910000", "183502.920000", "183504.927500", "183506.935000", "183508.942500", "183510.952500", "183512.960000", "183514.967500", "183516.975000", "183518.982500", "183520.992500", "183523.000000", "183525.007500", "183527.015000", "183529.022500", "183531.032500", "183533.040000", "183535.047500", "183537.055000", "183539.062500", "183541.072500", "183543.080000", "183545.087500", "183547.095000", "183549.105000", "183551.112500", "183553.120000", "183555.127500", "183557.135000", "183559.145000", "183601.152500", "183603.160000", "183605.167500", "183607.175000", "183609.185000", "183611.192500", "183613.200000", "183615.207500", "183617.217500", "183619.225000", "183621.232500", "183623.240000", "183625.247500", "183627.257500", "183629.265000", "183631.272500", "183633.280000", "183635.287500", "183637.297500", "183639.305000", "183641.312500", "183643.320000", "183645.330000", "183647.337500", "183649.345000", "183651.352500", "183653.360000", "183655.370000", "183657.377500", "183659.385000", "183701.392500", "183703.400000", "183705.410000", "183707.417500", "183709.425000", "183711.432500", "183713.442500", "183715.450000", "183717.457500", "183719.465000", "183721.472500", "183723.482500", "183725.490000", "183727.497500", "183729.505000", "183731.512500", "183733.522500", "183735.530000", "183737.537500", "183739.545000", "183741.552500", "183743.562500", "183745.570000", "183747.577500", "183749.585000", "183751.595000", "183753.602500", "183755.610000", "183757.617500", "183759.625000", "183801.635000", "183803.642500", "183805.650000", "183807.657500", "183809.665000", "183811.675000", "183813.682500", "183815.690000", "183817.697500", "183819.707500", "183821.715000", "183823.722500", "183825.730000", "183827.737500", "183829.747500", "183831.755000", "183833.762500", "183835.770000", "183837.777500", "183839.787500", "183841.795000", "183843.802500", "183845.810000", "183847.820000", "183849.827500", "183851.835000", "183853.842500", "183855.850000", "183857.860000", "183859.867500", "183901.875000", "183903.882500", "183905.890000", "183907.900000", "183909.907500", "183911.915000", "183913.922500", "183915.930000", "183917.940000", "183919.947500", "183921.955000", "183923.962500", "183925.972500", "183927.980000", "183929.987500", "183931.995000", "183934.002500", "183936.012500", "183938.020000", "183940.027500", "183942.035000", "183944.042500", "183946.052500", "183948.060000", "183950.067500", "183952.075000"],
      "ContentTime": ["183255.843000", "183257.828000", "183259.828000", "183301.828000", "183303.828000", "183305.828000", "183307.828000", "183309.828000", "183311.843000", "183313.828000", "183315.828000", "183317.828000", "183319.828000", "183321.828000", "183323.828000", "183325.828000", "183327.843000", "183329.828000", "183331.828000", "183333.828000", "183335.828000", "183337.828000", "183339.828000", "183341.828000", "183343.828000", "183345.828000", "183347.828000", "183349.828000", "183351.828000", "183353.828000", "183355.828000", "183357.828000", "183359.828000", "183401.828000", "183403.828000", "183405.828000", "183407.828000", "183409.828000", "183411.828000", "183413.828000", "183415.828000", "183417.828000", "183419.828000", "183421.828000", "183423.828000", "183425.828000", "183427.828000", "183429.828000", "183431.828000", "183433.828000", "183435.828000", "183437.828000", "183439.828000", "183441.828000", "183443.828000", "183445.828000", "183447.828000", "183449.828000", "183451.828000", "183453.828000", "183455.828000", "183457.828000", "183459.828000", "183501.843000", "183503.828000", "183505.828000", "183507.828000", "183509.828000", "183511.828000", "183513.828000", "183515.828000", "183517.828000", "183519.828000", "183521.828000", "183523.828000", "183525.828000", "183527.828000", "183529.828000", "183531.828000", "183533.828000", "183535.828000", "183537.828000", "183539.828000", "183541.828000", "183543.828000", "183545.828000", "183547.828000", "183549.828000", "183551.828000", "183553.828000", "183555.828000", "183557.828000", "183559.828000", "183601.828000", "183603.828000", "183605.828000", "183607.828000", "183609.843000", "183611.843000", "183613.828000", "183615.828000", "183617.828000", "183619.828000", "183621.828000", "183623.828000", "183625.828000", "183627.828000", "183629.828000", "183631.828000", "183633.828000", "183635.843000", "183637.828000", "183639.828000", "183641.828000", "183643.828000", "183645.828000", "183647.828000", "183649.828000", "183651.828000", "183653.828000", "183655.828000", "183657.828000", "183659.828000", "183701.828000", "183703.828000", "183705.828000", "183707.828000", "183709.843000", "183711.828000", "183713.828000", "183715.828000", "183717.828000", "183719.828000", "183721.828000", "183723.828000", "183725.828000", "183727.828000", "183729.828000", "183731.828000", "183733.828000", "183735.828000", "183737.828000", "183739.828000", "183741.828000", "183743.828000", "183745.843000", "183747.828000", "183749.828000", "183751.828000", "183753.828000", "183755.828000", "183757.828000", "183759.828000", "183801.828000", "183803.828000", "183805.828000", "183807.843000", "183809.843000", "183811.828000", "183813.828000", "183815.828000", "183817.828000", "183819.828000", "183821.828000", "183823.828000", "183825.828000", "183827.843000", "183829.828000", "183831.828000", "183833.828000", "183835.828000", "183837.828000", "183839.828000", "183841.828000", "183843.828000", "183845.828000", "183847.828000", "183849.828000", "183851.828000", "183853.828000", "183855.828000", "183857.828000", "183859.828000", "183901.828000", "183903.828000", "183905.828000", "183907.843000", "183909.843000", "183911.828000", "183913.828000", "183915.828000", "183917.828000", "183919.828000", "183921.828000", "183923.828000", "183925.828000", "183927.828000", "183929.828000", "183931.828000", "183933.828000", "183935.828000", "183937.828000", "183939.828000", "183941.828000", "183943.828000", "183945.828000", "183947.828000", "183949.828000", "183951.828000", "183953.562000"],
      "InstanceCreationTime": ["183255.843000", "183257.828000", "183259.828000", "183301.828000", "183303.828000", "183305.828000", "183307.828000", "183309.828000", "183311.843000", "183313.828000", "183315.828000", "183317.828000", "183319.828000", "183321.828000", "183323.828000", "183325.828000", "183327.843000", "183329.828000", "183331.828000", "183333.828000", "183335.828000", "183337.828000", "183339.828000", "183341.828000", "183343.828000", "183345.828000", "183347.828000", "183349.828000", "183351.828000", "183353.828000", "183355.828000", "183357.828000", "183359.828000", "183401.828000", "183403.828000", "183405.828000", "183407.828000", "183409.828000", "183411.828000", "183413.828000", "183415.828000", "183417.828000", "183419.828000", "183421.828000", "183423.828000", "183425.828000", "183427.828000", "183429.828000", "183431.828000", "183433.828000", "183435.828000", "183437.828000", "183439.828000", "183441.828000", "183443.828000", "183445.828000", "183447.828000", "183449.828000", "183451.828000", "183453.828000", "183455.828000", "183457.828000", "183459.828000", "183501.843000", "183503.828000", "183505.828000", "183507.828000", "183509.828000", "183511.828000", "183513.828000", "183515.828000", "183517.828000", "183519.828000", "183521.828000", "183523.828000", "183525.828000", "183527.828000", "183529.828000", "183531.828000", "183533.828000", "183535.828000", "183537.828000", "183539.828000", "183541.828000", "183543.828000", "183545.828000", "183547.828000", "183549.828000", "183551.828000", "183553.828000", "183555.828000", "183557.828000", "183559.828000", "183601.828000", "183603.828000", "183605.828000", "183607.828000", "183609.843000", "183611.843000", "183613.828000", "183615.828000", "183617.828000", "183619.828000", "183621.828000", "183623.828000", "183625.828000", "183627.828000", "183629.828000", "183631.828000", "183633.828000", "183635.843000", "183637.828000", "183639.828000", "183641.828000", "183643.828000", "183645.828000", "183647.828000", "183649.828000", "183651.828000", "183653.828000", "183655.828000", "183657.828000", "183659.828000", "183701.828000", "183703.828000", "183705.828000", "183707.828000", "183709.843000", "183711.828000", "183713.828000", "183715.828000", "183717.828000", "183719.828000", "183721.828000", "183723.828000", "183725.828000", "183727.828000", "183729.828000", "183731.828000", "183733.828000", "183735.828000", "183737.828000", "183739.828000", "183741.828000", "183743.828000", "183745.843000", "183747.828000", "183749.828000", "183751.828000", "183753.828000", "183755.828000", "183757.828000", "183759.828000", "183801.828000", "183803.828000", "183805.828000", "183807.843000", "183809.843000", "183811.828000", "183813.828000", "183815.828000", "183817.828000", "183819.828000", "183821.828000", "183823.828000", "183825.828000", "183827.843000", "183829.828000", "183831.828000", "183833.828000", "183835.828000", "183837.828000", "183839.828000", "183841.828000", "183843.828000", "183845.828000", "183847.828000", "183849.828000", "183851.828000", "183853.828000", "183855.828000", "183857.828000", "183859.828000", "183901.828000", "183903.828000", "183905.828000", "183907.843000", "183909.843000", "183911.828000", "183913.828000", "183915.828000", "183917.828000", "183919.828000", "183921.828000", "183923.828000", "183925.828000", "183927.828000", "183929.828000", "183931.828000", "183933.828000", "183935.828000", "183937.828000", "183939.828000", "183941.828000", "183943.828000", "183945.828000", "183947.828000", "183949.828000", "183951.828000", "183953.562000"],
      "InstanceNumber": [1, 2, 3, 4, 5, 6, 7, 8, 9, 10, 11, 12, 13, 14, 15, 16, 17, 18, 19, 20, 21, 22, 23, 24, 25, 26, 27, 28, 29, 30, 31, 32, 33, 34, 35, 36, 37, 38, 39, 40, 41, 42, 43, 44, 45, 46, 47, 48, 49, 50, 51, 52, 53, 54, 55, 56, 57, 58, 59, 60, 61, 62, 63, 64, 65, 66, 67, 68, 69, 70, 71, 72, 73, 74, 75, 76, 77, 78, 79, 80, 81, 82, 83, 84, 85, 86, 87, 88, 89, 90, 91, 92, 93, 94, 95, 96, 97, 98, 99, 100, 101, 102, 103, 104, 105, 106, 107, 108, 109, 110, 111, 112, 113, 114, 115, 116, 117, 118, 119, 120, 121, 122, 123, 124, 125, 126, 127, 128, 129, 130, 131, 132, 133, 134, 135, 136, 137, 138, 139, 140, 141, 142, 143, 144, 145, 146, 147, 148, 149, 150, 151, 152, 153, 154, 155, 156, 157, 158, 159, 160, 161, 162, 163, 164, 165, 166, 167, 168, 169, 170, 171, 172, 173, 174, 175, 176, 177, 178, 179, 180, 181, 182, 183, 184, 185, 186, 187, 188, 189, 190, 191, 192, 193, 194, 195, 196, 197, 198, 199, 200, 201, 202, 203, 204, 205, 206, 207, 208, 209, 210],
      "LargestImagePixelValue": [1856, 2175, 1772, 2122, 2160, 1772, 1738, 2109, 2167, 1789, 2044, 1926, 1926, 1943, 1887, 2036, 1786, 1952, 1749, 1760, 2108, 2200, 1738, 1824, 1989, 2120, 2126, 2092, 2067, 2152, 2109, 2019, 1862, 1759, 1760, 1955, 2145, 1738, 2106, 2259, 1751, 1781, 1957, 1928, 2177, 2037, 1760, 1933, 1947, 2171, 1726, 1783, 2051, 2200, 1978, 1942, 1776, 1761, 2153, 1752, 2088, 2075, 2173, 1836, 2083, 1769, 1866, 1915, 2159, 1748, 2267, 1743, 2275, 2016, 1706, 1738, 2220, 1758, 1966, 1873, 1776, 1996, 2008, 1753, 2185, 1937, 1749, 2143, 2027, 1997, 1805, 1757, 1843, 1813, 1817, 1915, 2183, 1769, 1765, 1924, 1779, 1771, 2247, 1777, 1800, 2206, 1807, 1765, 1967, 1757, 1762, 1776, 1938, 2114, 1748, 1972, 1756, 2040, 1741, 2131, 2038, 2163, 1739, 1868, 2151, 1766, 1732, 2144, 1754, 1848, 2262, 1746, 2004, 2169, 1737, 1788, 1886, 2040, 1772, 1739, 1871, 1746, 2137, 1730, 1793, 2116, 2104, 1759, 1766, 2084, 1745, 1799, 2005, 1787, 1753, 1797, 1778, 1792, 1897, 1932, 1772, 1921, 2221, 1804, 1749, 2035, 1946, 1799, 1758, 1830, 1954, 1793, 1756, 1974, 1800, 1756, 2104, 1875, 1795, 1753, 2065, 1817, 1914, 2048, 1889, 1766, 1965, 1945, 2039, 1749, 1804, 2064, 1791, 1738, 1851, 1818, 1951, 1739, 1785, 1741, 2151, 1737, 2157, 2116, 1787, 1751, 1967, 1993, 1764, 1874],
      "WindowCenter": [723.0, 721.0, 719.0, 720.0, 720.0, 717.0, 717.0, 718.0, 719.0, 716.0, 717.0, 718.0, 718.0, 717.0, 716.0, 716.0, 716.0, 718.0, 717.0, 716.0, 718.0, 719.0, 717.0, 723.0, 726.0, 721.0, 718.0, 717.0, 717.0, 718.0, 717.0, 716.0, 716.0, 717.0, 717.0, 718.0, 720.0, 718.0, 719.0, 719.0, 717.0, 717.0, 718.0, 719.0, 721.0, 720.0, 718.0, 720.0, 718.0, 719.0, 717.0, 718.0, 719.0, 719.0, 719.0, 719.0, 717.0, 718.0, 720.0, 718.0, 719.0, 719.0, 720.0, 716.0, 735.0, 722.0, 721.0, 723.0, 720.0, 717.0, 719.0, 719.0, 719.0, 719.0, 718.0, 717.0, 719.0, 716.0, 718.0, 723.0, 718.0, 717.0, 719.0, 719.0, 720.0, 717.0, 716.0, 718.0, 716.0, 716.0, 716.0, 717.0, 719.0, 720.0, 719.0, 719.0, 722.0, 719.0, 719.0, 720.0, 720.0, 719.0, 720.0, 718.0, 718.0, 720.0, 717.0, 717.0, 718.0, 718.0, 718.0, 718.0, 719.0, 719.0, 718.0, 723.0, 723.0, 721.0, 718.0, 719.0, 720.0, 721.0, 719.0, 720.0, 719.0, 718.0, 719.0, 720.0, 718.0, 718.0, 720.0, 717.0, 718.0, 719.0, 717.0, 717.0, 718.0, 718.0, 717.0, 717.0, 719.0, 718.0, 721.0, 719.0, 719.0, 720.0, 720.0, 717.0, 717.0, 720.0, 718.0, 717.0, 718.0, 718.0, 717.0, 718.0, 719.0, 718.0, 718.0, 719.0, 718.0, 719.0, 719.0, 717.0, 717.0, 718.0, 718.0, 717.0, 717.0, 717.0, 718.0, 719.0, 718.0, 720.0, 719.0, 717.0, 717.0, 717.0, 718.0, 719.0, 720.0, 718.0, 718.0, 718.0, 718.0, 717.0, 717.0, 717.0, 718.0, 717.0, 717.0, 718.0, 717.0, 717.0, 717.0, 718.0, 719.0, 719.0, 722.0, 721.0, 723.0, 719.0, 719.0, 719.0, 718.0, 718.0, 719.0, 720.0, 719.0, 719.0],
      "WindowWidth": [1535.0, 1529.0, 1524.0, 1526.0, 1525.0, 1519.0, 1518.0, 1522.0, 1524.0, 1517.0, 1519.0, 1522.0, 1521.0, 1519.0, 1516.0, 1517.0, 1516.0, 1522.0, 1519.0, 1517.0, 1520.0, 1523.0, 1518.0, 1533.0, 1540.0, 1528.0, 1520.0, 1518.0, 1519.0, 1521.0, 1519.0, 1517.0, 1516.0, 1519.0, 1519.0, 1522.0, 1526.0, 1521.0, 1524.0, 1524.0, 1519.0, 1520.0, 1522.0, 1524.0, 1527.0, 1525.0, 1521.0, 1526.0, 1522.0, 1524.0, 1520.0, 1521.0, 1523.0, 1524.0, 1525.0, 1524.0, 1520.0, 1522.0, 1527.0, 1521.0, 1523.0, 1523.0, 1525.0, 1517.0, 1564.0, 1530.0, 1530.0, 1534.0, 1525.0, 1518.0, 1524.0, 1524.0, 1524.0, 1522.0, 1521.0, 1519.0, 1525.0, 1518.0, 1521.0, 1535.0, 1521.0, 1520.0, 1523.0, 1523.0, 1525.0, 1520.0, 1517.0, 1521.0, 1518.0, 1518.0, 1517.0, 1519.0, 1524.0, 1526.0, 1523.0, 1525.0, 1531.0, 1525.0, 1523.0, 1527.0, 1527.0, 1524.0, 1527.0, 1522.0, 1522.0, 1526.0, 1519.0, 1518.0, 1522.0, 1520.0, 1520.0, 1522.0, 1524.0, 1524.0, 1521.0, 1535.0, 1534.0, 1529.0, 1521.0, 1522.0, 1525.0, 1529.0, 1523.0, 1525.0, 1525.0, 1521.0, 1525.0, 1527.0, 1521.0, 1522.0, 1528.0, 1520.0, 1521.0, 1523.0, 1519.0, 1518.0, 1520.0, 1522.0, 1520.0, 1519.0, 1524.0, 1523.0, 1528.0, 1524.0, 1523.0, 1526.0, 1526.0, 1520.0, 1520.0, 1526.0, 1521.0, 1520.0, 1522.0, 1521.0, 1519.0, 1523.0, 1524.0, 1521.0, 1520.0, 1523.0, 1522.0, 1523.0, 1525.0, 1519.0, 1518.0, 1521.0, 1521.0, 1518.0, 1519.0, 1520.0, 1522.0, 1523.0, 1522.0, 1527.0, 1524.0, 1518.0, 1520.0, 1519.0, 1521.0, 1523.0, 1526.0, 1521.0, 1521.0, 1521.0, 1520.0, 1518.0, 1519.0, 1519.0, 1521.0, 1519.0, 1518.0, 1521.0, 1518.0, 1518.0, 1519.0, 1521.0, 1525.0, 1523.0, 1531.0, 1528.0, 1533.0, 1523.0, 1523.0, 1524.0, 1520.0, 1522.0, 1522.0, 1525.0, 1522.0, 1523.0]
    },
    "slices": {}
  }
}