{
  "AcquisitionMatrixPE": 64,
  "AcquisitionNumber": 1,
  "AcquisitionTime": "17:47:41.010000",
  "BandwidthPerPixelPhaseEncode": 30.637,
  "BaseResolution": 64,
  "BidsGuess": [
    "func",
    "_acq-epfid2_dir-AP_run-5_bold"
],
  "CoilCombinationMethod": "Sum of Squares",
  "CoilString": "C:HEA;HEP",
  "ConversionSoftware": "dcm2niix",
  "ConversionSoftwareVersion": "v1.0.20240202",
  "DerivedVendorReportedEchoSpacing": 0.000510004,
  "DeviceSerialNumber": "35119",
  "DwellTime": 3.5e-06,
  "EchoTime": 0.03,
  "EffectiveEchoSpacing": 0.000510004,
  "FlipAngle": 78,
  "HeudiconvVersion": "1.1.6",
  "ImageComments": "V",
  "ImageOrientationPatientDICOM": [0.999864, 0.005398, 0.015583, 0, 0.94491, -0.32733],
  "ImageOrientationText": "Tra>Cor(-19.1)>Sag(0.9)",
  "ImageType": [
    "ORIGINAL",
    "PRIMARY",
    "M",
    "ND",
    "MOSAIC"
],
  "ImagingFrequency": 123.251869,
  "InPlanePhaseEncodingDirectionDICOM": "COL",
  "InstitutionAddress": "Chaucer Road  15,Cambridge,UK,GB,CB2 2EF",
  "InstitutionName": "MRC-CBU",
  "MRAcquisitionType": "2D",
  "MagneticFieldStrength": 3,
  "Manufacturer": "Siemens",
  "ManufacturersModelName": "TrioTim",
  "MatrixCoilMode": "SENSE",
  "Modality": "MR",
  "NonlinearGradientCorrection": false,
  "PartialFourier": 1,
  "PatientPosition": "HFS",
  "PercentPhaseFOV": 100,
  "PercentSampling": 100,
  "PhaseEncodingDirection": "j-",
  "PhaseEncodingSteps": 64,
  "PhaseResolution": 1,
  "PixelBandwidth": 2230,
  "ProcedureStepDescription": "CBU^Neuroimaging",
  "ProtocolName": "CBU_DWEPI_BOLD210",
  "PulseSequenceDetails": "%SiemensSeq%\\ep2d_bold",
  "ReceiveCoilName": "HeadMatrix",
  "ReconMatrixPE": 64,
  "RepetitionTime": 2,
  "SAR": 0.114176,
  "ScanOptions": "FS",
  "ScanningSequence": "EP",
  "SequenceName": "*epfid2d1_64",
  "SequenceVariant": "SK",
  "SeriesDescription": "CBU_DWEPI_BOLD210",
  "SeriesNumber": 5,
  "ShimSetting": [-7786, -8813, -2077, 926, 188, 144, -98, -53],
  "SliceThickness": 3,
  "SliceTiming": [0, 1.0325, 0.06, 1.095, 0.12, 1.155, 0.1825, 1.215, 0.2425, 1.2775, 0.3025, 1.3375, 0.365, 1.3975, 0.425, 1.46, 0.485, 1.52, 0.5475, 1.58, 0.6075, 1.6425, 0.6675, 1.7025, 0.73, 1.7625, 0.79, 1.825, 0.85, 1.885, 0.9125, 1.945, 0.9725],
  "SoftwareVersions": "syngo MR B15",
  "SpacingBetweenSlices": 3.75,
  "StationName": "MRC35119",
  "TaskName": "faceprocessing",
  "TotalReadoutTime": 0.0321303,
  "TxRefAmp": 295.172,
  "dcmmeta_affine": [
    [-2.9995920658111572, 0.0, 0.06184297427535057, 96.66275024414062],
    [-0.016194000840187073, 2.8347299098968506, -1.2273205518722534, -59.0399284362793],
    [0.04674899950623512, 0.9819899797439575, 3.5429306030273438, -68.84608459472656],
    [0.0, 0.0, 0.0, 1.0]
],
  "dcmmeta_reorient_transform": [
    [0.0, -1.0, 0.0, 63.0],
    [1.0, 0.0, 0.0, 0.0],
    [0.0, 0.0, 1.0, 0.0],
    [0.0, 0.0, 0.0, 1.0]
],
  "dcmmeta_shape": [64, 64, 33, 210],
  "dcmmeta_slice_dim": 2,
  "dcmmeta_version": 0.6,
  "global": {
    "const": {
      "AcquisitionMatrix": [64, 0, 0, 64],
      "AngioFlag": "N",
      "BitsAllocated": 16,
      "BitsStored": 12,
      "Columns": 384,
      "EchoNumbers": 1,
      "EchoTime": 30.0,
      "EchoTrainLength": 1,
      "FlipAngle": 78.0,
      "HighBit": 11,
      "ImageOrientationPatient": [0.999864, 0.005398, 0.015583, -0.0, 0.94491, -0.32733],
      "ImagePositionPatient": [-576.597473, -575.6959, 142.657842],
      "ImageType": [
        "ORIGINAL",
        "PRIMARY",
        "M",
        "ND",
        "MOSAIC"
],
      "ImagedNucleus": "1H",
      "ImagingFrequency": 123.251869,
      "InPlanePhaseEncodingDirection": "COL",
      "MRAcquisitionType": "2D",
      "MagneticFieldStrength": 3.0,
      "Manufacturer": "SIEMENS",
      "ManufacturerModelName": "TrioTim",
      "Modality": "MR",
      "NumberOfAverages": 1.0,
      "NumberOfPhaseEncodingSteps": 64,
      "PercentPhaseFieldOfView": 100.0,
      "PercentSampling": 100.0,
      "PerformedProcedureStepStartTime": "172442.656000",
      "PhotometricInterpretation": "MONOCHROME2",
      "PixelAspectRatio": [1, 1],
      "PixelBandwidth": 2230.0,
      "PixelRepresentation": 0,
      "PixelSpacing": [3.0, 3.0],
      "ProtocolName": "CBU_DWEPI_BOLD210",
      "RepetitionTime": 2000.0,
      "Rows": 384,
      "SAR": 0.114176,
      "SamplesPerPixel": 1,
      "ScanOptions": "FS",
      "ScanningSequence": "EP",
      "SequenceName": "*epfid2d1_64",
      "SequenceVariant": "SK",
      "SeriesDescription": "CBU_DWEPI_BOLD210",
      "SeriesNumber": 5,
      "SeriesTime": "174744.390000",
      "SliceLocation": -44.127353,
      "SliceThickness": 3.0,
      "SmallestImagePixelValue": 0,
      "SoftwareVersions": "syngo MR B15",
      "SpacingBetweenSlices": 3.75,
      "SpecificCharacterSet": "ISO_IR 100",
      "StudyID": "1",
      "StudyTime": "172442.609000",
      "TransmitCoilName": "Body",
      "VariableFlipAngleFlag": "N",
      "WindowCenterWidthExplanation": "Algo1",
      "dBdt": 0.0},
    "slices": {}
  },
  "time": {
    "samples": {
      "AcquisitionNumber": [1, 2, 3, 4, 5, 6, 7, 8, 9, 10, 11, 12, 13, 14, 15, 16, 17, 18, 19, 20, 21, 22, 23, 24, 25, 26, 27, 28, 29, 30, 31, 32, 33, 34, 35, 36, 37, 38, 39, 40, 41, 42, 43, 44, 45, 46, 47, 48, 49, 50, 51, 52, 53, 54, 55, 56, 57, 58, 59, 60, 61, 62, 63, 64, 65, 66, 67, 68, 69, 70, 71, 72, 73, 74, 75, 76, 77, 78, 79, 80, 81, 82, 83, 84, 85, 86, 87, 88, 89, 90, 91, 92, 93, 94, 95, 96, 97, 98, 99, 100, 101, 102, 103, 104, 105, 106, 107, 108, 109, 110, 111, 112, 113, 114, 115, 116, 117, 118, 119, 120, 121, 122, 123, 124, 125, 126, 127, 128, 129, 130, 131, 132, 133, 134, 135, 136, 137, 138, 139, 140, 141, 142, 143, 144, 145, 146, 147, 148, 149, 150, 151, 152, 153, 154, 155, 156, 157, 158, 159, 160, 161, 162, 163, 164, 165, 166, 167, 168, 169, 170, 171, 172, 173, 174, 175, 176, 177, 178, 179, 180, 181, 182, 183, 184, 185, 186, 187, 188, 189, 190, 191, 192, 193, 194, 195, 196, 197, 198, 199, 200, 201, 202, 203, 204, 205, 206, 207, 208, 209, 210],
      "AcquisitionTime": ["174741.010000", "174743.017500", "174745.025000", "174747.032500", "174749.040000", "174751.050000", "174753.057500", "174755.065000", "174757.072500", "174759.080000", "174801.090000", "174803.097500", "174805.105000", "174807.112500", "174809.120000", "174811.130000", "174813.137500", "174815.145000", "174817.152500", "174819.162500", "174821.170000", "174823.177500", "174825.185000", "174827.192500", "174829.202500", "174831.210000", "174833.217500", "174835.225000", "174837.232500", "174839.242500", "174841.250000", "174843.257500", "174845.265000", "174847.275000", "174849.282500", "174851.290000", "174853.297500", "174855.305000", "174857.315000", "174859.322500", "174901.330000", "174903.337500", "174905.345000", "174907.355000", "174909.362500", "174911.370000", "174913.377500", "174915.387500", "174917.395000", "174919.402500", "174921.410000", "174923.417500", "174925.427500", "174927.435000", "174929.442500", "174931.450000", "174933.457500", "174935.467500", "174937.475000", "174939.482500", "174941.490000", "174943.497500", "174945.507500", "174947.515000", "174949.522500", "174951.530000", "174953.540000", "174955.547500", "174957.555000", "174959.562500", "175001.570000", "175003.580000", "175005.587500", "175007.595000", "175009.602500", "175011.610000", "175013.620000", "175015.627500", "175017.635000", "175019.642500", "175021.652500", "175023.660000", "175025.667500", "175027.675000", "175029.682500", "175031.692500", "175033.700000", "175035.707500", "175037.715000", "175039.722500", "175041.732500", "175043.740000", "175045.747500", "175047.755000", "175049.765000", "175051.772500", "175053.780000", "175055.787500", "175057.795000", "175059.805000", "175101.812500", "175103.820000", "175105.827500", "175107.835000", "175109.845000", "175111.852500", "175113.860000", "175115.867500", "175117.875000", "175119.885000", "175121.892500", "175123.900000", "175125.907500", "175127.917500", "175129.925000", "175131.932500", "175133.940000", "175135.947500", "175137.957500", "175139.965000", "175141.972500", "175143.980000", "175145.987500", "175147.997500", "175150.005000", "175152.012500", "175154.020000", "175156.030000", "175158.037500", "175200.045000", "175202.052500", "175204.060000", "175206.070000", "175208.077500", "175210.085000", "175212.092500", "175214.100000", "175216.110000", "175218.117500", "175220.125000", "175222.132500", "175224.142500", "175226.150000", "175228.157500", "175230.165000", "175232.172500", "175234.182500", "175236.190000", "175238.197500", "175240.205000", "175242.212500", "175244.222500", "175246.230000", "175248.237500", "175250.245000", "175252.252500", "175254.262500", "175256.270000", "175258.277500", "175300.285000", "175302.295000", "175304.302500", "175306.310000", "175308.317500", "175310.325000", "175312.335000", "175314.342500", "175316.350000", "175318.357500", "175320.365000", "175322.375000", "175324.382500", "175326.390000", "175328.397500", "175330.407500", "175332.415000", "175334.422500", "175336.430000", "175338.437500", "175340.447500", "175342.455000", "175344.462500", "175346.470000", "175348.477500", "175350.487500", "175352.495000", "175354.502500", "175356.510000", "175358.520000", "175400.527500", "175402.535000", "175404.542500", "175406.550000", "175408.560000", "175410.567500", "175412.575000", "175414.582500", "175416.590000", "175418.600000", "175420.607500", "175422.615000", "175424.622500", "175426.630000", "175428.640000", "175430.647500", "175432.655000", "175434.662500", "175436.672500", "175438.680000", "175440.687500"],
      "ContentTime": ["174744.406000", "174746.390000", "174748.390000", "174750.390000", "174752.390000", "174754.390000", "174756.390000", "174758.390000", "174800.390000", "174802.390000", "174804.390000", "174806.390000", "174808.390000", "174810.390000", "174812.390000", "174814.390000", "174816.390000", "174818.390000", "174820.390000", "174822.390000", "174824.390000", "174826.390000", "174828.390000", "174830.390000", "174832.390000", "174834.390000", "174836.390000", "174838.390000", "174840.390000", "174842.390000", "174844.390000", "174846.390000", "174848.390000", "174850.390000", "174852.390000", "174854.390000", "174856.390000", "174858.390000", "174900.390000", "174902.390000", "174904.390000", "174906.390000", "174908.390000", "174910.390000", "174912.390000", "174914.390000", "174916.390000", "174918.390000", "174920.390000", "174922.390000", "174924.390000", "174926.390000", "174928.390000", "174930.390000", "174932.390000", "174934.390000", "174936.390000", "174938.390000", "174940.390000", "174942.390000", "174944.390000", "174946.390000", "174948.390000", "174950.390000", "174952.390000", "174954.390000", "174956.390000", "174958.390000", "175000.390000", "175002.390000", "175004.390000", "175006.390000", "175008.390000", "175010.390000", "175012.390000", "175014.390000", "175016.390000", "175018.390000", "175020.390000", "175022.390000", "175024.390000", "175026.390000", "175028.390000", "175030.390000", "175032.390000", "175034.390000", "175036.390000", "175038.390000", "175040.390000", "175042.390000", "175044.390000", "175046.390000", "175048.390000", "175050.390000", "175052.390000", "175054.390000", "175056.390000", "175058.390000", "175100.390000", "175102.390000", "175104.390000", "175106.390000", "175108.390000", "175110.390000", "175112.390000", "175114.390000", "175116.390000", "175118.390000", "175120.390000", "175122.390000", "175124.390000", "175126.390000", "175128.390000", "175130.390000", "175132.390000", "175134.390000", "175136.390000", "175138.390000", "175140.390000", "175142.390000", "175144.390000", "175146.390000", "175148.390000", "175150.390000", "175152.390000", "175154.390000", "175156.390000", "175158.390000", "175200.390000", "175202.390000", "175204.390000", "175206.390000", "175208.390000", "175210.390000", "175212.390000", "175214.390000", "175216.390000", "175218.390000", "175220.390000", "175222.390000", "175224.390000", "175226.390000", "175228.390000", "175230.390000", "175232.390000", "175234.390000", "175236.390000", "175238.390000", "175240.390000", "175242.390000", "175244.390000", "175246.390000", "175248.390000", "175250.390000", "175252.390000", "175254.390000", "175256.390000", "175258.390000", "175300.390000", "175302.390000", "175304.390000", "175306.390000", "175308.390000", "175310.390000", "175312.390000", "175314.390000", "175316.390000", "175318.390000", "175320.390000", "175322.390000", "175324.390000", "175326.390000", "175328.390000", "175330.390000", "175332.390000", "175334.390000", "175336.390000", "175338.390000", "175340.390000", "175342.390000", "175344.390000", "175346.390000", "175348.390000", "175350.390000", "175352.390000", "175354.390000", "175356.390000", "175358.390000", "175400.390000", "175402.390000", "175404.390000", "175406.390000", "175408.390000", "175410.390000", "175412.390000", "175414.390000", "175416.390000", "175418.390000", "175420.390000", "175422.390000", "175424.390000", "175426.390000", "175428.390000", "175430.390000", "175432.390000", "175434.390000", "175436.390000", "175438.390000", "175440.390000", "175442.234000"],
      "InstanceCreationTime": ["174744.406000", "174746.390000", "174748.390000", "174750.390000", "174752.390000", "174754.390000", "174756.390000", "174758.390000", "174800.390000", "174802.390000", "174804.390000", "174806.390000", "174808.390000", "174810.390000", "174812.390000", "174814.390000", "174816.390000", "174818.390000", "174820.390000", "174822.390000", "174824.390000", "174826.390000", "174828.390000", "174830.390000", "174832.390000", "174834.390000", "174836.390000", "174838.390000", "174840.390000", "174842.390000", "174844.390000", "174846.390000", "174848.390000", "174850.390000", "174852.390000", "174854.390000", "174856.390000", "174858.390000", "174900.390000", "174902.390000", "174904.390000", "174906.390000", "174908.390000", "174910.390000", "174912.390000", "174914.390000", "174916.390000", "174918.390000", "174920.390000", "174922.390000", "174924.390000", "174926.390000", "174928.390000", "174930.390000", "174932.390000", "174934.390000", "174936.390000", "174938.390000", "174940.390000", "174942.390000", "174944.390000", "174946.390000", "174948.390000", "174950.390000", "174952.390000", "174954.390000", "174956.390000", "174958.390000", "175000.390000", "175002.390000", "175004.390000", "175006.390000", "175008.390000", "175010.390000", "175012.390000", "175014.390000", "175016.390000", "175018.390000", "175020.390000", "175022.390000", "175024.390000", "175026.390000", "175028.390000", "175030.390000", "175032.390000", "175034.390000", "175036.390000", "175038.390000", "175040.390000", "175042.390000", "175044.390000", "175046.390000", "175048.390000", "175050.390000", "175052.390000", "175054.390000", "175056.390000", "175058.390000", "175100.390000", "175102.390000", "175104.390000", "175106.390000", "175108.390000", "175110.390000", "175112.390000", "175114.390000", "175116.390000", "175118.390000", "175120.390000", "175122.390000", "175124.390000", "175126.390000", "175128.390000", "175130.390000", "175132.390000", "175134.390000", "175136.390000", "175138.390000", "175140.390000", "175142.390000", "175144.390000", "175146.390000", "175148.390000", "175150.390000", "175152.390000", "175154.390000", "175156.390000", "175158.390000", "175200.390000", "175202.390000", "175204.390000", "175206.390000", "175208.390000", "175210.390000", "175212.390000", "175214.390000", "175216.390000", "175218.390000", "175220.390000", "175222.390000", "175224.390000", "175226.390000", "175228.390000", "175230.390000", "175232.390000", "175234.390000", "175236.390000", "175238.390000", "175240.390000", "175242.390000", "175244.390000", "175246.390000", "175248.390000", "175250.390000", "175252.390000", "175254.390000", "175256.390000", "175258.390000", "175300.390000", "175302.390000", "175304.390000", "175306.390000", "175308.390000", "175310.390000", "175312.390000", "175314.390000", "175316.390000", "175318.390000", "175320.390000", "175322.390000", "175324.390000", "175326.390000", "175328.390000", "175330.390000", "175332.390000", "175334.390000", "175336.390000", "175338.390000", "175340.390000", "175342.390000", "175344.390000", "175346.390000", "175348.390000", "175350.390000", "175352.390000", "175354.390000", "175356.390000", "175358.390000", "175400.390000", "175402.390000", "175404.390000", "175406.390000", "175408.390000", "175410.390000", "175412.390000", "175414.390000", "175416.390000", "175418.390000", "175420.390000", "175422.390000", "175424.390000", "175426.390000", "175428.390000", "175430.390000", "175432.390000", "175434.390000", "175436.390000", "175438.390000", "175440.390000", "175442.234000"],
      "InstanceNumber": [1, 2, 3, 4, 5, 6, 7, 8, 9, 10, 11, 12, 13, 14, 15, 16, 17, 18, 19, 20, 21, 22, 23, 24, 25, 26, 27, 28, 29, 30, 31, 32, 33, 34, 35, 36, 37, 38, 39, 40, 41, 42, 43, 44, 45, 46, 47, 48, 49, 50, 51, 52, 53, 54, 55, 56, 57, 58, 59, 60, 61, 62, 63, 64, 65, 66, 67, 68, 69, 70, 71, 72, 73, 74, 75, 76, 77, 78, 79, 80, 81, 82, 83, 84, 85, 86, 87, 88, 89, 90, 91, 92, 93, 94, 95, 96, 97, 98, 99, 100, 101, 102, 103, 104, 105, 106, 107, 108, 109, 110, 111, 112, 113, 114, 115, 116, 117, 118, 119, 120, 121, 122, 123, 124, 125, 126, 127, 128, 129, 130, 131, 132, 133, 134, 135, 136, 137, 138, 139, 140, 141, 142, 143, 144, 145, 146, 147, 148, 149, 150, 151, 152, 153, 154, 155, 156, 157, 158, 159, 160, 161, 162, 163, 164, 165, 166, 167, 168, 169, 170, 171, 172, 173, 174, 175, 176, 177, 178, 179, 180, 181, 182, 183, 184, 185, 186, 187, 188, 189, 190, 191, 192, 193, 194, 195, 196, 197, 198, 199, 200, 201, 202, 203, 204, 205, 206, 207, 208, 209, 210],
      "LargestImagePixelValue": [2110, 1761, 2088, 2004, 1729, 1886, 1986, 1719, 1938, 2043, 1882, 2167, 1738, 1720, 1836, 2035, 1745, 2030, 1924, 2043, 1709, 1911, 2036, 2029, 1706, 2026, 2056, 1964, 1948, 1712, 2018, 2025, 1739, 1723, 1962, 2050, 2044, 1801, 1778, 2070, 1974, 1732, 1738, 2011, 2027, 1710, 1877, 2077, 2058, 1727, 1886, 2026, 2073, 1896, 1727, 2027, 2069, 1966, 2099, 2003, 1694, 2043, 1751, 1906, 1961, 2139, 1721, 1863, 1976, 1968, 1786, 1887, 2079, 1868, 1881, 2130, 1757, 1943, 1952, 1976, 1762, 1929, 2000, 1766, 2001, 1913, 1756, 2068, 2033, 2082, 1717, 2019, 2079, 1913, 1735, 1909, 1982, 1935, 2028, 1777, 2028, 2064, 1937, 1736, 2034, 2004, 2033, 1760, 1909, 2058, 1864, 2154, 1782, 1790, 2066, 1967, 1851, 2009, 2071, 1960, 1772, 1948, 2085, 1716, 1943, 1775, 2035, 1817, 1871, 1793, 1829, 1797, 1798, 1801, 1938, 1918, 1768, 2041, 1923, 1779, 1846, 1955, 1905, 1806, 1845, 1867, 1913, 2049, 1885, 1771, 1948, 1950, 1835, 2011, 1794, 1968, 2099, 1947, 1784, 1853, 2074, 1802, 1996, 1882, 1839, 1812, 1853, 1848, 2003, 1773, 1835, 2022, 1967, 1962, 1798, 1798, 1997, 1776, 1797, 1953, 1987, 1777, 1783, 1888, 1937, 1773, 1782, 2007, 2057, 1782, 1921, 1956, 1775, 1804, 2111, 1778, 1919, 1885, 1851, 2034, 1782, 1882, 1994, 1855, 1774, 1814, 1896, 1927, 1837, 1799],
      "WindowCenter": [728.0, 724.0, 721.0, 720.0, 718.0, 720.0, 720.0, 719.0, 720.0, 721.0, 720.0, 721.0, 718.0, 719.0, 720.0, 721.0, 719.0, 721.0, 721.0, 722.0, 720.0, 720.0, 720.0, 720.0, 720.0, 721.0, 721.0, 719.0, 720.0, 720.0, 721.0, 720.0, 718.0, 718.0, 720.0, 720.0, 720.0, 719.0, 720.0, 721.0, 720.0, 719.0, 719.0, 721.0, 721.0, 719.0, 720.0, 721.0, 721.0, 719.0, 720.0, 721.0, 721.0, 720.0, 721.0, 722.0, 721.0, 721.0, 722.0, 720.0, 719.0, 721.0, 720.0, 720.0, 720.0, 722.0, 721.0, 721.0, 721.0, 722.0, 721.0, 721.0, 722.0, 721.0, 721.0, 726.0, 723.0, 721.0, 721.0, 721.0, 721.0, 721.0, 722.0, 721.0, 722.0, 724.0, 723.0, 723.0, 722.0, 723.0, 721.0, 722.0, 722.0, 720.0, 719.0, 720.0, 721.0, 721.0, 722.0, 721.0, 722.0, 722.0, 722.0, 721.0, 722.0, 721.0, 723.0, 721.0, 721.0, 721.0, 721.0, 723.0, 720.0, 720.0, 722.0, 723.0, 722.0, 722.0, 722.0, 722.0, 720.0, 721.0, 722.0, 721.0, 725.0, 724.0, 724.0, 725.0, 722.0, 720.0, 721.0, 720.0, 721.0, 720.0, 721.0, 722.0, 720.0, 722.0, 720.0, 720.0, 720.0, 721.0, 721.0, 722.0, 721.0, 721.0, 722.0, 722.0, 721.0, 721.0, 722.0, 722.0, 721.0, 721.0, 721.0, 723.0, 723.0, 722.0, 721.0, 722.0, 724.0, 721.0, 721.0, 721.0, 721.0, 720.0, 720.0, 720.0, 723.0, 722.0, 721.0, 722.0, 721.0, 720.0, 719.0, 720.0, 722.0, 721.0, 721.0, 721.0, 722.0, 721.0, 720.0, 720.0, 721.0, 721.0, 721.0, 721.0, 722.0, 721.0, 721.0, 721.0, 721.0, 722.0, 723.0, 721.0, 721.0, 721.0, 721.0, 722.0, 720.0, 721.0, 721.0, 720.0, 720.0, 720.0, 721.0, 721.0, 720.0, 724.0],
      "WindowWidth": [1546.0, 1534.0, 1529.0, 1526.0, 1521.0, 1524.0, 1525.0, 1523.0, 1526.0, 1527.0, 1524.0, 1527.0, 1521.0, 1522.0, 1526.0, 1529.0, 1523.0, 1527.0, 1527.0, 1531.0, 1526.0, 1525.0, 1525.0, 1526.0, 1525.0, 1528.0, 1527.0, 1523.0, 1525.0, 1526.0, 1527.0, 1525.0, 1521.0, 1521.0, 1524.0, 1526.0, 1525.0, 1524.0, 1525.0, 1528.0, 1525.0, 1522.0, 1523.0, 1528.0, 1528.0, 1523.0, 1525.0, 1528.0, 1528.0, 1522.0, 1524.0, 1527.0, 1527.0, 1525.0, 1528.0, 1531.0, 1528.0, 1527.0, 1529.0, 1526.0, 1522.0, 1528.0, 1524.0, 1525.0, 1526.0, 1530.0, 1527.0, 1527.0, 1527.0, 1530.0, 1528.0, 1529.0, 1531.0, 1528.0, 1528.0, 1539.0, 1532.0, 1527.0, 1527.0, 1529.0, 1529.0, 1528.0, 1531.0, 1527.0, 1530.0, 1535.0, 1533.0, 1533.0, 1531.0, 1533.0, 1526.0, 1530.0, 1529.0, 1526.0, 1522.0, 1524.0, 1526.0, 1527.0, 1530.0, 1528.0, 1530.0, 1529.0, 1529.0, 1527.0, 1529.0, 1528.0, 1531.0, 1528.0, 1526.0, 1527.0, 1528.0, 1533.0, 1526.0, 1525.0, 1530.0, 1532.0, 1529.0, 1529.0, 1530.0, 1529.0, 1525.0, 1527.0, 1529.0, 1527.0, 1536.0, 1534.0, 1535.0, 1538.0, 1530.0, 1526.0, 1526.0, 1526.0, 1526.0, 1526.0, 1527.0, 1529.0, 1526.0, 1528.0, 1526.0, 1525.0, 1526.0, 1527.0, 1528.0, 1529.0, 1528.0, 1528.0, 1530.0, 1530.0, 1528.0, 1527.0, 1529.0, 1531.0, 1528.0, 1527.0, 1527.0, 1532.0, 1533.0, 1529.0, 1526.0, 1529.0, 1534.0, 1527.0, 1527.0, 1529.0, 1528.0, 1526.0, 1525.0, 1526.0, 1532.0, 1529.0, 1526.0, 1529.0, 1527.0, 1526.0, 1524.0, 1525.0, 1530.0, 1527.0, 1526.0, 1528.0, 1530.0, 1527.0, 1525.0, 1525.0, 1526.0, 1528.0, 1527.0, 1528.0, 1529.0, 1526.0, 1528.0, 1528.0, 1526.0, 1529.0, 1532.0, 1526.0, 1528.0, 1527.0, 1526.0, 1529.0, 1524.0, 1526.0, 1528.0, 1525.0, 1524.0, 1525.0, 1527.0, 1526.0, 1526.0, 1533.0]
    },
    "slices": {}
  }
}