{
  "AcquisitionMatrixPE": 64,
  "AcquisitionNumber": 1,
  "AcquisitionTime": "18:03:3.147500",
  "BandwidthPerPixelPhaseEncode": 30.637,
  "BaseResolution": 64,
  "BidsGuess": [
    "func",
    "_acq-epfid2_dir-AP_run-7_bold"
],
  "CoilCombinationMethod": "Sum of Squares",
  "CoilString": "C:HEA;HEP",
  "ConversionSoftware": "dcm2niix",
  "ConversionSoftwareVersion": "v1.0.20240202",
  "DerivedVendorReportedEchoSpacing": 0.000510004,
  "DeviceSerialNumber": "35119",
  "DwellTime": 3.5e-06,
  "EchoTime": 0.03,
  "EffectiveEchoSpacing": 0.000510004,
  "FlipAngle": 78,
  "HeudiconvVersion": "1.1.6",
  "ImageComments": "V",
  "ImageOrientationPatientDICOM": [0.999864, 0.005398, 0.015583, 0, 0.94491, -0.32733],
  "ImageOrientationText": "Tra>Cor(-19.1)>Sag(0.9)",
  "ImageType": [
    "ORIGINAL",
    "PRIMARY",
    "M",
    "ND",
    "MOSAIC"
],
  "ImagingFrequency": 123.251893,
  "InPlanePhaseEncodingDirectionDICOM": "COL",
  "InstitutionAddress": "Chaucer Road  15,Cambridge,UK,GB,CB2 2EF",
  "InstitutionName": "MRC-CBU",
  "MRAcquisitionType": "2D",
  "MagneticFieldStrength": 3,
  "Manufacturer": "Siemens",
  "ManufacturersModelName": "TrioTim",
  "MatrixCoilMode": "SENSE",
  "Modality": "MR",
  "NonlinearGradientCorrection": false,
  "PartialFourier": 1,
  "PatientPosition": "HFS",
  "PercentPhaseFOV": 100,
  "PercentSampling": 100,
  "PhaseEncodingDirection": "j-",
  "PhaseEncodingSteps": 64,
  "PhaseResolution": 1,
  "PixelBandwidth": 2230,
  "ProcedureStepDescription": "CBU^Neuroimaging",
  "ProtocolName": "CBU_DWEPI_BOLD210",
  "PulseSequenceDetails": "%SiemensSeq%\\ep2d_bold",
  "ReceiveCoilName": "HeadMatrix",
  "ReconMatrixPE": 64,
  "RepetitionTime": 2,
  "SAR": 0.114176,
  "ScanOptions": "FS",
  "ScanningSequence": "EP",
  "SequenceName": "*epfid2d1_64",
  "SequenceVariant": "SK",
  "SeriesDescription": "CBU_DWEPI_BOLD210",
  "SeriesNumber": 7,
  "ShimSetting": [-7785, -8818, -2078, 923, 191, 107, -108, -53],
  "SliceThickness": 3,
  "SliceTiming": [0, 1.0325, 0.06, 1.095, 0.12, 1.155, 0.1825, 1.215, 0.2425, 1.2775, 0.3025, 1.3375, 0.365, 1.3975, 0.425, 1.46, 0.485, 1.52, 0.5475, 1.58, 0.6075, 1.6425, 0.6675, 1.7025, 0.73, 1.7625, 0.79, 1.825, 0.85, 1.885, 0.9125, 1.945, 0.9725],
  "SoftwareVersions": "syngo MR B15",
  "SpacingBetweenSlices": 3.75,
  "StationName": "MRC35119",
  "TaskName": "faceprocessing",
  "TotalReadoutTime": 0.0321303,
  "TxRefAmp": 295.172,
  "dcmmeta_affine": [
    [-2.9995920658111572, 0.0, 0.06184297427535057, 96.6086654663086],
    [-0.016194000840187073, 2.8347299098968506, -1.2273205518722534, -59.0399284362793],
    [0.04674899950623512, 0.9819899797439575, 3.5429306030273438, -71.94488525390625],
    [0.0, 0.0, 0.0, 1.0]
],
  "dcmmeta_reorient_transform": [
    [0.0, -1.0, 0.0, 63.0],
    [1.0, 0.0, 0.0, 0.0],
    [0.0, 0.0, 1.0, 0.0],
    [0.0, 0.0, 0.0, 1.0]
],
  "dcmmeta_shape": [64, 64, 33, 210],
  "dcmmeta_slice_dim": 2,
  "dcmmeta_version": 0.6,
  "global": {
    "const": {
      "AcquisitionMatrix": [64, 0, 0, 64],
      "AngioFlag": "N",
      "BitsAllocated": 16,
      "BitsStored": 12,
      "Columns": 384,
      "EchoNumbers": 1,
      "EchoTime": 30.0,
      "EchoTrainLength": 1,
      "FlipAngle": 78.0,
      "HighBit": 11,
      "ImageOrientationPatient": [0.999864, 0.005398, 0.015583, -0.0, 0.94491, -0.32733],
      "ImagePositionPatient": [-576.543383, -575.6959, 139.559042],
      "ImageType": [
        "ORIGINAL",
        "PRIMARY",
        "M",
        "ND",
        "MOSAIC"
],
      "ImagedNucleus": "1H",
      "ImagingFrequency": 123.251893,
      "InPlanePhaseEncodingDirection": "COL",
      "MRAcquisitionType": "2D",
      "MagneticFieldStrength": 3.0,
      "Manufacturer": "SIEMENS",
      "ManufacturerModelName": "TrioTim",
      "Modality": "MR",
      "NumberOfAverages": 1.0,
      "NumberOfPhaseEncodingSteps": 64,
      "PercentPhaseFieldOfView": 100.0,
      "PercentSampling": 100.0,
      "PerformedProcedureStepStartTime": "172442.656000",
      "PhotometricInterpretation": "MONOCHROME2",
      "PixelAspectRatio": [1, 1],
      "PixelBandwidth": 2230.0,
      "PixelRepresentation": 0,
      "PixelSpacing": [3.0, 3.0],
      "ProtocolName": "CBU_DWEPI_BOLD210",
      "RepetitionTime": 2000.0,
      "Rows": 384,
      "SAR": 0.114176,
      "SamplesPerPixel": 1,
      "ScanOptions": "FS",
      "ScanningSequence": "EP",
      "SequenceName": "*epfid2d1_64",
      "SequenceVariant": "SK",
      "SeriesDescription": "CBU_DWEPI_BOLD210",
      "SeriesNumber": 7,
      "SeriesTime": "180307.046000",
      "SliceLocation": -47.055935,
      "SliceThickness": 3.0,
      "SmallestImagePixelValue": 0,
      "SoftwareVersions": "syngo MR B15",
      "SpacingBetweenSlices": 3.75,
      "SpecificCharacterSet": "ISO_IR 100",
      "StudyID": "1",
      "StudyTime": "172442.609000",
      "TransmitCoilName": "Body",
      "VariableFlipAngleFlag": "N",
      "WindowCenterWidthExplanation": "Algo1",
      "dBdt": 0.0},
    "slices": {}
  },
  "time": {
    "samples": {
      "AcquisitionNumber": [1, 2, 3, 4, 5, 6, 7, 8, 9, 10, 11, 12, 13, 14, 15, 16, 17, 18, 19, 20, 21, 22, 23, 24, 25, 26, 27, 28, 29, 30, 31, 32, 33, 34, 35, 36, 37, 38, 39, 40, 41, 42, 43, 44, 45, 46, 47, 48, 49, 50, 51, 52, 53, 54, 55, 56, 57, 58, 59, 60, 61, 62, 63, 64, 65, 66, 67, 68, 69, 70, 71, 72, 73, 74, 75, 76, 77, 78, 79, 80, 81, 82, 83, 84, 85, 86, 87, 88, 89, 90, 91, 92, 93, 94, 95, 96, 97, 98, 99, 100, 101, 102, 103, 104, 105, 106, 107, 108, 109, 110, 111, 112, 113, 114, 115, 116, 117, 118, 119, 120, 121, 122, 123, 124, 125, 126, 127, 128, 129, 130, 131, 132, 133, 134, 135, 136, 137, 138, 139, 140, 141, 142, 143, 144, 145, 146, 147, 148, 149, 150, 151, 152, 153, 154, 155, 156, 157, 158, 159, 160, 161, 162, 163, 164, 165, 166, 167, 168, 169, 170, 171, 172, 173, 174, 175, 176, 177, 178, 179, 180, 181, 182, 183, 184, 185, 186, 187, 188, 189, 190, 191, 192, 193, 194, 195, 196, 197, 198, 199, 200, 201, 202, 203, 204, 205, 206, 207, 208, 209, 210],
      "AcquisitionTime": ["180303.147500", "180305.155000", "180307.162500", "180309.170000", "180311.177500", "180313.187500", "180315.195000", "180317.202500", "180319.210000", "180321.217500", "180323.227500", "180325.235000", "180327.242500", "180329.250000", "180331.260000", "180333.267500", "180335.275000", "180337.282500", "180339.290000", "180341.300000", "180343.307500", "180345.315000", "180347.322500", "180349.330000", "180351.340000", "180353.347500", "180355.355000", "180357.362500", "180359.370000", "180401.380000", "180403.387500", "180405.395000", "180407.402500", "180409.412500", "180411.420000", "180413.427500", "180415.435000", "180417.442500", "180419.452500", "180421.460000", "180423.467500", "180425.475000", "180427.482500", "180429.492500", "180431.500000", "180433.507500", "180435.515000", "180437.525000", "180439.532500", "180441.540000", "180443.547500", "180445.555000", "180447.565000", "180449.572500", "180451.580000", "180453.587500", "180455.595000", "180457.605000", "180459.612500", "180501.620000", "180503.627500", "180505.637500", "180507.645000", "180509.652500", "180511.660000", "180513.667500", "180515.677500", "180517.685000", "180519.692500", "180521.700000", "180523.707500", "180525.717500", "180527.725000", "180529.732500", "180531.740000", "180533.747500", "180535.757500", "180537.765000", "180539.772500", "180541.780000", "180543.790000", "180545.797500", "180547.805000", "180549.812500", "180551.820000", "180553.830000", "180555.837500", "180557.845000", "180559.852500", "180601.860000", "180603.870000", "180605.877500", "180607.885000", "180609.892500", "180611.902500", "180613.910000", "180615.917500", "180617.925000", "180619.932500", "180621.942500", "180623.950000", "180625.957500", "180627.965000", "180629.972500", "180631.982500", "180633.990000", "180635.997500", "180638.005000", "180640.015000", "180642.022500", "180644.030000", "180646.037500", "180648.045000", "180650.055000", "180652.062500", "180654.070000", "180656.077500", "180658.085000", "180700.095000", "180702.102500", "180704.110000", "180706.117500", "180708.125000", "180710.135000", "180712.142500", "180714.150000", "180716.157500", "180718.167500", "180720.175000", "180722.182500", "180724.190000", "180726.197500", "180728.207500", "180730.215000", "180732.222500", "180734.230000", "180736.237500", "180738.247500", "180740.255000", "180742.262500", "180744.270000", "180746.280000", "180748.287500", "180750.295000", "180752.302500", "180754.310000", "180756.320000", "180758.327500", "180800.335000", "180802.342500", "180804.350000", "180806.360000", "180808.367500", "180810.375000", "180812.382500", "180814.392500", "180816.400000", "180818.407500", "180820.415000", "180822.422500", "180824.432500", "180826.440000", "180828.447500", "180830.455000", "180832.462500", "180834.472500", "180836.480000", "180838.487500", "180840.495000", "180842.502500", "180844.512500", "180846.520000", "180848.527500", "180850.535000", "180852.545000", "180854.552500", "180856.560000", "180858.567500", "180900.575000", "180902.585000", "180904.592500", "180906.600000", "180908.607500", "180910.615000", "180912.625000", "180914.632500", "180916.640000", "180918.647500", "180920.657500", "180922.665000", "180924.672500", "180926.680000", "180928.687500", "180930.697500", "180932.705000", "180934.712500", "180936.720000", "180938.727500", "180940.737500", "180942.745000", "180944.752500", "180946.760000", "180948.770000", "180950.777500", "180952.785000", "180954.792500", "180956.800000", "180958.810000", "181000.817500", "181002.825000"],
      "ContentTime": ["180307.062000", "180309.046000", "180311.046000", "180313.046000", "180315.046000", "180317.046000", "180319.046000", "180321.046000", "180323.046000", "180325.046000", "180327.046000", "180329.046000", "180331.046000", "180333.046000", "180335.046000", "180337.046000", "180339.046000", "180341.046000", "180343.046000", "180345.046000", "180347.046000", "180349.046000", "180351.046000", "180353.046000", "180355.046000", "180357.046000", "180359.046000", "180401.046000", "180403.046000", "180405.046000", "180407.046000", "180409.046000", "180411.046000", "180413.046000", "180415.046000", "180417.046000", "180419.046000", "180421.046000", "180423.046000", "180425.046000", "180427.046000", "180429.046000", "180431.046000", "180433.046000", "180435.046000", "180437.046000", "180439.046000", "180441.046000", "180443.046000", "180445.046000", "180447.046000", "180449.046000", "180451.046000", "180453.046000", "180455.046000", "180457.046000", "180459.046000", "180501.046000", "180503.046000", "180505.046000", "180507.046000", "180509.046000", "180511.046000", "180513.046000", "180515.046000", "180517.046000", "180519.046000", "180521.046000", "180523.046000", "180525.046000", "180527.046000", "180529.046000", "180531.046000", "180533.046000", "180535.046000", "180537.046000", "180539.046000", "180541.046000", "180543.046000", "180545.046000", "180547.046000", "180549.046000", "180551.046000", "180553.046000", "180555.046000", "180557.046000", "180559.046000", "180601.046000", "180603.046000", "180605.046000", "180607.046000", "180609.046000", "180611.046000", "180613.046000", "180615.046000", "180617.046000", "180619.046000", "180621.046000", "180623.046000", "180625.046000", "180627.046000", "180629.046000", "180631.046000", "180633.046000", "180635.046000", "180637.046000", "180639.046000", "180641.046000", "180643.046000", "180645.046000", "180647.046000", "180649.046000", "180651.046000", "180653.046000", "180655.046000", "180657.046000", "180659.046000", "180701.046000", "180703.046000", "180705.046000", "180707.046000", "180709.046000", "180711.046000", "180713.046000", "180715.046000", "180717.046000", "180719.046000", "180721.046000", "180723.046000", "180725.046000", "180727.046000", "180729.046000", "180731.046000", "180733.046000", "180735.046000", "180737.046000", "180739.046000", "180741.046000", "180743.046000", "180745.046000", "180747.046000", "180749.046000", "180751.046000", "180753.046000", "180755.046000", "180757.046000", "180759.046000", "180801.046000", "180803.046000", "180805.046000", "180807.046000", "180809.046000", "180811.046000", "180813.046000", "180815.046000", "180817.046000", "180819.046000", "180821.046000", "180823.046000", "180825.046000", "180827.046000", "180829.046000", "180831.046000", "180833.046000", "180835.046000", "180837.046000", "180839.046000", "180841.046000", "180843.046000", "180845.046000", "180847.046000", "180849.046000", "180851.046000", "180853.046000", "180855.046000", "180857.046000", "180859.046000", "180901.046000", "180903.046000", "180905.046000", "180907.046000", "180909.046000", "180911.046000", "180913.046000", "180915.046000", "180917.046000", "180919.046000", "180921.046000", "180923.046000", "180925.046000", "180927.046000", "180929.046000", "180931.046000", "180933.046000", "180935.046000", "180937.046000", "180939.046000", "180941.046000", "180943.046000", "180945.046000", "180947.046000", "180949.046000", "180951.046000", "180953.046000", "180955.046000", "180957.046000", "180959.046000", "181001.046000", "181003.046000", "181004.828000"],
      "InstanceCreationTime": ["180307.062000", "180309.046000", "180311.046000", "180313.046000", "180315.046000", "180317.046000", "180319.046000", "180321.046000", "180323.046000", "180325.046000", "180327.046000", "180329.046000", "180331.046000", "180333.046000", "180335.046000", "180337.046000", "180339.046000", "180341.046000", "180343.046000", "180345.046000", "180347.046000", "180349.046000", "180351.046000", "180353.046000", "180355.046000", "180357.046000", "180359.046000", "180401.046000", "180403.046000", "180405.046000", "180407.046000", "180409.046000", "180411.046000", "180413.046000", "180415.046000", "180417.046000", "180419.046000", "180421.046000", "180423.046000", "180425.046000", "180427.046000", "180429.046000", "180431.046000", "180433.046000", "180435.046000", "180437.046000", "180439.046000", "180441.046000", "180443.046000", "180445.046000", "180447.046000", "180449.046000", "180451.046000", "180453.046000", "180455.046000", "180457.046000", "180459.046000", "180501.046000", "180503.046000", "180505.046000", "180507.046000", "180509.046000", "180511.046000", "180513.046000", "180515.046000", "180517.046000", "180519.046000", "180521.046000", "180523.046000", "180525.046000", "180527.046000", "180529.046000", "180531.046000", "180533.046000", "180535.046000", "180537.046000", "180539.046000", "180541.046000", "180543.046000", "180545.046000", "180547.046000", "180549.046000", "180551.046000", "180553.046000", "180555.046000", "180557.046000", "180559.046000", "180601.046000", "180603.046000", "180605.046000", "180607.046000", "180609.046000", "180611.046000", "180613.046000", "180615.046000", "180617.046000", "180619.046000", "180621.046000", "180623.046000", "180625.046000", "180627.046000", "180629.046000", "180631.046000", "180633.046000", "180635.046000", "180637.046000", "180639.046000", "180641.046000", "180643.046000", "180645.046000", "180647.046000", "180649.046000", "180651.046000", "180653.046000", "180655.046000", "180657.046000", "180659.046000", "180701.046000", "180703.046000", "180705.046000", "180707.046000", "180709.046000", "180711.046000", "180713.046000", "180715.046000", "180717.046000", "180719.046000", "180721.046000", "180723.046000", "180725.046000", "180727.046000", "180729.046000", "180731.046000", "180733.046000", "180735.046000", "180737.046000", "180739.046000", "180741.046000", "180743.046000", "180745.046000", "180747.046000", "180749.046000", "180751.046000", "180753.046000", "180755.046000", "180757.046000", "180759.046000", "180801.046000", "180803.046000", "180805.046000", "180807.046000", "180809.046000", "180811.046000", "180813.046000", "180815.046000", "180817.046000", "180819.046000", "180821.046000", "180823.046000", "180825.046000", "180827.046000", "180829.046000", "180831.046000", "180833.046000", "180835.046000", "180837.046000", "180839.046000", "180841.046000", "180843.046000", "180845.046000", "180847.046000", "180849.046000", "180851.046000", "180853.046000", "180855.046000", "180857.046000", "180859.046000", "180901.046000", "180903.046000", "180905.046000", "180907.046000", "180909.046000", "180911.046000", "180913.046000", "180915.046000", "180917.046000", "180919.046000", "180921.046000", "180923.046000", "180925.046000", "180927.046000", "180929.046000", "180931.046000", "180933.046000", "180935.046000", "180937.046000", "180939.046000", "180941.046000", "180943.046000", "180945.046000", "180947.046000", "180949.046000", "180951.046000", "180953.046000", "180955.046000", "180957.046000", "180959.046000", "181001.046000", "181003.046000", "181004.828000"],
      "InstanceNumber": [1, 2, 3, 4, 5, 6, 7, 8, 9, 10, 11, 12, 13, 14, 15, 16, 17, 18, 19, 20, 21, 22, 23, 24, 25, 26, 27, 28, 29, 30, 31, 32, 33, 34, 35, 36, 37, 38, 39, 40, 41, 42, 43, 44, 45, 46, 47, 48, 49, 50, 51, 52, 53, 54, 55, 56, 57, 58, 59, 60, 61, 62, 63, 64, 65, 66, 67, 68, 69, 70, 71, 72, 73, 74, 75, 76, 77, 78, 79, 80, 81, 82, 83, 84, 85, 86, 87, 88, 89, 90, 91, 92, 93, 94, 95, 96, 97, 98, 99, 100, 101, 102, 103, 104, 105, 106, 107, 108, 109, 110, 111, 112, 113, 114, 115, 116, 117, 118, 119, 120, 121, 122, 123, 124, 125, 126, 127, 128, 129, 130, 131, 132, 133, 134, 135, 136, 137, 138, 139, 140, 141, 142, 143, 144, 145, 146, 147, 148, 149, 150, 151, 152, 153, 154, 155, 156, 157, 158, 159, 160, 161, 162, 163, 164, 165, 166, 167, 168, 169, 170, 171, 172, 173, 174, 175, 176, 177, 178, 179, 180, 181, 182, 183, 184, 185, 186, 187, 188, 189, 190, 191, 192, 193, 194, 195, 196, 197, 198, 199, 200, 201, 202, 203, 204, 205, 206, 207, 208, 209, 210],
      "LargestImagePixelValue": [2049, 1852, 1823, 1806, 1795, 1839, 1812, 1814, 1848, 1834, 1826, 1815, 1817, 1813, 1814, 1793, 1802, 1825, 1828, 1799, 1804, 1813, 1846, 1832, 1820, 1810, 1827, 1833, 1848, 1833, 1832, 1830, 1803, 1686, 1761, 1731, 1701, 1705, 1697, 1774, 1649, 1673, 1700, 1655, 1669, 1740, 1621, 1622, 1654, 1586, 1645, 1683, 1720, 1658, 1690, 1651, 1788, 1629, 1670, 1820, 1717, 1802, 1658, 1763, 1674, 1702, 1792, 1686, 1688, 1739, 1775, 1640, 1658, 1679, 2120, 1653, 1683, 1684, 1659, 1867, 1648, 1670, 2016, 1669, 1688, 1665, 1666, 1691, 1660, 1686, 1708, 1945, 1691, 1681, 2089, 1695, 1642, 1658, 1779, 1668, 1838, 1666, 1961, 2119, 1665, 1684, 1705, 1753, 2019, 1709, 1625, 1797, 1956, 1662, 1608, 2034, 1684, 1656, 1752, 1841, 1678, 1617, 2040, 1653, 1738, 2049, 1675, 2133, 1654, 1689, 1659, 1636, 1796, 1771, 1655, 1612, 1850, 1954, 1824, 1642, 1611, 1644, 1855, 1831, 1660, 1641, 1917, 1708, 2014, 1804, 1664, 1691, 1704, 1671, 1659, 1841, 1801, 1862, 1687, 1889, 1743, 1633, 1946, 1676, 1920, 1638, 1645, 1954, 1711, 1890, 1966, 1645, 1696, 1644, 1638, 1736, 2071, 1847, 1669, 1646, 1676, 1772, 1654, 1765, 1822, 1677, 1863, 2147, 1704, 1653, 1667, 1840, 1656, 1645, 1643, 1975, 1658, 1669, 1884, 1627, 1637, 1741, 1634, 2049, 2063, 1982, 1982, 1691, 1880, 2027],
      "WindowCenter": [726.0, 716.0, 714.0, 714.0, 714.0, 715.0, 714.0, 714.0, 715.0, 714.0, 715.0, 714.0, 714.0, 715.0, 714.0, 713.0, 714.0, 714.0, 714.0, 714.0, 713.0, 715.0, 715.0, 715.0, 714.0, 714.0, 716.0, 716.0, 715.0, 715.0, 715.0, 716.0, 715.0, 716.0, 715.0, 714.0, 714.0, 715.0, 713.0, 714.0, 714.0, 714.0, 715.0, 713.0, 713.0, 714.0, 713.0, 716.0, 717.0, 713.0, 712.0, 713.0, 713.0, 713.0, 713.0, 713.0, 714.0, 713.0, 715.0, 717.0, 715.0, 715.0, 713.0, 712.0, 713.0, 714.0, 717.0, 716.0, 713.0, 713.0, 712.0, 711.0, 712.0, 712.0, 713.0, 711.0, 712.0, 713.0, 713.0, 714.0, 713.0, 713.0, 715.0, 714.0, 715.0, 715.0, 714.0, 715.0, 715.0, 715.0, 714.0, 716.0, 715.0, 715.0, 716.0, 714.0, 713.0, 713.0, 715.0, 715.0, 716.0, 714.0, 715.0, 715.0, 713.0, 715.0, 715.0, 714.0, 725.0, 715.0, 714.0, 714.0, 715.0, 714.0, 715.0, 717.0, 715.0, 715.0, 715.0, 715.0, 714.0, 714.0, 716.0, 713.0, 714.0, 716.0, 715.0, 717.0, 714.0, 716.0, 716.0, 714.0, 715.0, 715.0, 713.0, 714.0, 716.0, 715.0, 714.0, 714.0, 714.0, 714.0, 715.0, 715.0, 715.0, 715.0, 718.0, 725.0, 718.0, 715.0, 714.0, 715.0, 714.0, 714.0, 714.0, 715.0, 714.0, 716.0, 715.0, 715.0, 713.0, 714.0, 717.0, 715.0, 715.0, 713.0, 714.0, 717.0, 715.0, 715.0, 716.0, 714.0, 714.0, 713.0, 714.0, 715.0, 716.0, 714.0, 714.0, 714.0, 714.0, 714.0, 714.0, 715.0, 717.0, 717.0, 717.0, 717.0, 715.0, 714.0, 714.0, 716.0, 715.0, 714.0, 715.0, 717.0, 715.0, 714.0, 715.0, 713.0, 714.0, 716.0, 715.0, 717.0, 716.0, 715.0, 717.0, 720.0, 719.0, 717.0],
      "WindowWidth": [1540.0, 1514.0, 1508.0, 1508.0, 1509.0, 1513.0, 1510.0, 1511.0, 1511.0, 1510.0, 1511.0, 1510.0, 1510.0, 1512.0, 1510.0, 1508.0, 1509.0, 1511.0, 1509.0, 1509.0, 1508.0, 1512.0, 1513.0, 1511.0, 1510.0, 1511.0, 1514.0, 1516.0, 1513.0, 1513.0, 1513.0, 1514.0, 1513.0, 1516.0, 1513.0, 1510.0, 1511.0, 1512.0, 1508.0, 1509.0, 1510.0, 1510.0, 1514.0, 1509.0, 1508.0, 1511.0, 1509.0, 1515.0, 1516.0, 1508.0, 1505.0, 1506.0, 1509.0, 1508.0, 1508.0, 1507.0, 1509.0, 1508.0, 1511.0, 1518.0, 1513.0, 1513.0, 1507.0, 1506.0, 1506.0, 1509.0, 1518.0, 1514.0, 1507.0, 1506.0, 1505.0, 1501.0, 1504.0, 1504.0, 1507.0, 1502.0, 1504.0, 1506.0, 1506.0, 1510.0, 1507.0, 1508.0, 1513.0, 1510.0, 1513.0, 1513.0, 1510.0, 1511.0, 1512.0, 1512.0, 1510.0, 1514.0, 1511.0, 1511.0, 1515.0, 1510.0, 1508.0, 1508.0, 1512.0, 1511.0, 1515.0, 1510.0, 1511.0, 1513.0, 1508.0, 1512.0, 1511.0, 1510.0, 1537.0, 1511.0, 1509.0, 1509.0, 1512.0, 1510.0, 1511.0, 1516.0, 1511.0, 1511.0, 1511.0, 1511.0, 1510.0, 1508.0, 1514.0, 1508.0, 1510.0, 1515.0, 1510.0, 1516.0, 1510.0, 1515.0, 1516.0, 1509.0, 1511.0, 1512.0, 1507.0, 1509.0, 1513.0, 1513.0, 1510.0, 1509.0, 1509.0, 1509.0, 1511.0, 1512.0, 1511.0, 1513.0, 1519.0, 1538.0, 1520.0, 1512.0, 1510.0, 1511.0, 1510.0, 1509.0, 1510.0, 1511.0, 1510.0, 1515.0, 1512.0, 1512.0, 1508.0, 1509.0, 1517.0, 1511.0, 1512.0, 1508.0, 1509.0, 1516.0, 1511.0, 1511.0, 1514.0, 1510.0, 1510.0, 1508.0, 1509.0, 1512.0, 1514.0, 1510.0, 1509.0, 1509.0, 1509.0, 1510.0, 1510.0, 1511.0, 1516.0, 1517.0, 1516.0, 1517.0, 1511.0, 1509.0, 1509.0, 1513.0, 1512.0, 1510.0, 1512.0, 1516.0, 1512.0, 1509.0, 1511.0, 1508.0, 1511.0, 1515.0, 1512.0, 1516.0, 1514.0, 1513.0, 1516.0, 1525.0, 1523.0, 1516.0]
    },
    "slices": {}
  }
}