{
  "AcquisitionMatrixPE": 64,
  "AcquisitionNumber": 1,
  "AcquisitionTime": "11:27:2.632500",
  "BaseResolution": 64,
  "BidsGuess": [
    "fmap",
    "_acq-fm2_phasediff"
  ],
  "CoilCombinationMethod": "Adaptive Combine",
  "CoilString": "C:HEA;HEP",
  "ConversionSoftware": "dcm2niix",
  "ConversionSoftwareVersion": "v1.0.20240202",
  "DeviceSerialNumber": "35119",
  "DwellTime": 0.00003,
  "EchoNumber": 2,
  "EchoTime": 0.00765,
  "EchoTime1": 0.00519,
  "EchoTime2": 0.00765,
  "FlipAngle": 60,
  "HeudiconvVersion": "1.1.6",
  "ImageComments": "V",
  "ImageOrientationPatientDICOM": [
    0.999852,
    -0.007648,
    -0.0154,
    0,
    0.895641,
    -0.444778
  ],
  "ImageOrientationText": "Tra>Cor(-26.4)>Sag(-1.0)",
  "ImageType": [
    "ORIGINAL",
    "PRIMARY",
    "P",
    "ND",
    "PHASE"
  ],
  "ImagingFrequency": 123.251782,
  "InPlanePhaseEncodingDirectionDICOM": "COL",
  "InstitutionAddress": "Chaucer Road  15,Cambridge,UK,GB,CB2 2EF",
  "InstitutionName": "MRC-CBU",
  "IntendedFor": [
    "ses-mri/func/sub-08_ses-mri_task-facerecognition_run-01_bold.nii.gz",
    "ses-mri/func/sub-08_ses-mri_task-facerecognition_run-02_bold.nii.gz",
    "ses-mri/func/sub-08_ses-mri_task-facerecognition_run-03_bold.nii.gz",
    "ses-mri/func/sub-08_ses-mri_task-facerecognition_run-04_bold.nii.gz",
    "ses-mri/func/sub-08_ses-mri_task-facerecognition_run-05_bold.nii.gz",
    "ses-mri/func/sub-08_ses-mri_task-facerecognition_run-06_bold.nii.gz",
    "ses-mri/func/sub-08_ses-mri_task-facerecognition_run-07_bold.nii.gz",
    "ses-mri/func/sub-08_ses-mri_task-facerecognition_run-08_bold.nii.gz",
    "ses-mri/func/sub-08_ses-mri_task-facerecognition_run-09_bold.nii.gz"
  ],
  "MRAcquisitionType": "2D",
  "MagneticFieldStrength": 3,
  "Manufacturer": "Siemens",
  "ManufacturersModelName": "TrioTim",
  "MatrixCoilMode": "SENSE",
  "Modality": "MR",
  "NonlinearGradientCorrection": false,
  "PartialFourier": 1,
  "PatientPosition": "HFS",
  "PercentPhaseFOV": 100,
  "PercentSampling": 100,
  "PhaseEncodingDirection": "j-",
  "PhaseEncodingSteps": 64,
  "PhaseResolution": 1,
  "PixelBandwidth": 260,
  "ProcedureStepDescription": "CBU^Neuroimaging",
  "ProtocolName": "CBU_FieldMapping",
  "PulseSequenceDetails": "%SiemensSeq%\\gre_field_mapping",
  "ReceiveCoilName": "HeadMatrix",
  "ReconMatrixPE": 64,
  "RepetitionTime": 0.4,
  "SAR": 0.2018,
  "ScanningSequence": "GR",
  "SequenceName": "*fm2d2r",
  "SequenceVariant": "SP",
  "SeriesDescription": "CBU_FieldMapping",
  "SeriesNumber": 13,
  "ShimSetting": [
    -7835,
    -8808,
    -2091,
    857,
    221,
    -152,
    -163,
    88
  ],
  "SliceThickness": 3,
  "SliceTiming": [
    0,
    0.21094,
    0.01562,
    0.21875,
    0.02344,
    0.23438,
    0.03906,
    0.24219,
    0.04688,
    0.25781,
    0.0625,
    0.26562,
    0.07812,
    0.28125,
    0.08594,
    0.28906,
    0.09375,
    0.30469,
    0.10938,
    0.32031,
    0.125,
    0.32812,
    0.13281,
    0.34375,
    0.14844,
    0.35156,
    0.15625,
    0.36719,
    0.17188,
    0.375,
    0.17969,
    0.39062,
    0.19531
  ],
  "SoftwareVersions": "syngo MR B15",
  "SpacingBetweenSlices": 3.75,
  "StationName": "MRC35119",
  "TxRefAmp": 327.749,
  "dcmmeta_affine": [
    [
      -2.999556064605713,
      0.0,
      -0.0644799992442131,
      92.73756408691406
    ],
    [
      0.022943999618291855,
      2.686923027038574,
      -1.667672038078308,
      -52.44837951660156
    ],
    [
      -0.04619999974966049,
      1.3343340158462524,
      3.358154058456421,
      -99.29029846191406
    ],
    [
      0.0,
      0.0,
      0.0,
      1.0
    ]
  ],
  "dcmmeta_reorient_transform": [
    [
      0.0,
      -1.0,
      0.0,
      63.0
    ],
    [
      1.0,
      0.0,
      0.0,
      0.0
    ],
    [
      0.0,
      0.0,
      -1.0,
      32.0
    ],
    [
      0.0,
      0.0,
      0.0,
      1.0
    ]
  ],
  "dcmmeta_shape": [
    64,
    64,
    33
  ],
  "dcmmeta_slice_dim": 2,
  "dcmmeta_version": 0.6,
  "global": {
    "const": {
      "AcquisitionMatrix": [
        64,
        0,
        0,
        64
      ],
      "AcquisitionNumber": 1,
      "AngioFlag": "N",
      "BitsAllocated": 16,
      "BitsStored": 12,
      "Columns": 64,
      "EchoNumbers": 2,
      "EchoTime": 7.65,
      "EchoTrainLength": 1,
      "FlipAngle": 60.0,
      "HighBit": 11,
      "ImageOrientationPatient": [
        0.999852,
        -0.007648,
        -0.0154,
        -0.0,
        0.895641,
        -0.444778
      ],
      "ImageType": [
        "ORIGINAL",
        "PRIMARY",
        "P",
        "ND"
      ],
      "ImagedNucleus": "1H",
      "ImagingFrequency": 123.251782,
      "InPlanePhaseEncodingDirection": "COL",
      "MRAcquisitionType": "2D",
      "MagneticFieldStrength": 3.0,
      "Manufacturer": "SIEMENS",
      "ManufacturerModelName": "TrioTim",
      "Modality": "MR",
      "NumberOfAverages": 1.0,
      "NumberOfPhaseEncodingSteps": 64,
      "PercentPhaseFieldOfView": 100.0,
      "PercentSampling": 100.0,
      "PerformedProcedureStepStartTime": "095652.046000",
      "PhotometricInterpretation": "MONOCHROME2",
      "PixelAspectRatio": [
        1,
        1
      ],
      "PixelBandwidth": 260.0,
      "PixelRepresentation": 0,
      "PixelSpacing": [
        3.0,
        3.0
      ],
      "ProtocolName": "CBU_FieldMapping",
      "RepetitionTime": 400.0,
      "RescaleIntercept": -4096.0,
      "RescaleSlope": 2.0,
      "RescaleType": "US",
      "Rows": 64,
      "SAR": 0.2018,
      "SamplesPerPixel": 1,
      "ScanningSequence": "GR",
      "SequenceName": "*fm2d2r",
      "SequenceVariant": "SP",
      "SeriesDescription": "CBU_FieldMapping",
      "SeriesNumber": 13,
      "SeriesTime": "112755.906000",
      "SliceThickness": 3.0,
      "SoftwareVersions": "syngo MR B15",
      "SpacingBetweenSlices": 3.75,
      "SpecificCharacterSet": "ISO_IR 100",
      "StudyID": "1",
      "StudyTime": "095651.859000",
      "TransmitCoilName": "Body",
      "VariableFlipAngleFlag": "N",
      "WindowCenterWidthExplanation": "Algo1",
      "dBdt": 0.0
    },
    "slices": {
      "AcquisitionTime": [
        "112702.632500",
        "112702.840000",
        "112702.645000",
        "112702.852500",
        "112702.657500",
        "112702.865000",
        "112702.670000",
        "112702.877500",
        "112702.682500",
        "112702.890000",
        "112702.695000",
        "112702.900000",
        "112702.707500",
        "112702.912500",
        "112702.717500",
        "112702.925000",
        "112702.730000",
        "112702.937500",
        "112702.742500",
        "112702.950000",
        "112702.755000",
        "112702.962500",
        "112702.767500",
        "112702.975000",
        "112702.780000",
        "112702.987500",
        "112702.792500",
        "112702.997500",
        "112702.805000",
        "112703.010000",
        "112702.815000",
        "112703.022500",
        "112702.827500"
      ],
      "ContentTime": [
        "112755.921000",
        "112757.250000",
        "112755.953000",
        "112757.265000",
        "112755.953000",
        "112757.265000",
        "112755.953000",
        "112757.265000",
        "112755.968000",
        "112757.281000",
        "112757.171000",
        "112757.281000",
        "112757.187000",
        "112757.296000",
        "112757.187000",
        "112757.296000",
        "112757.203000",
        "112757.312000",
        "112757.203000",
        "112757.312000",
        "112757.218000",
        "112757.312000",
        "112757.234000",
        "112757.312000",
        "112757.234000",
        "112757.328000",
        "112757.234000",
        "112757.468000",
        "112757.234000",
        "112757.468000",
        "112757.250000",
        "112757.531000",
        "112757.250000"
      ],
      "CsaImage.GSWDDataType": [
        "predicted",
        "measured",
        "predicted",
        "measured",
        "predicted",
        "measured",
        "measured",
        "measured",
        "measured",
        "measured",
        "measured",
        "measured",
        "measured",
        "measured",
        "measured",
        "measured",
        "measured",
        "measured",
        "measured",
        "measured",
        "measured",
        "measured",
        "measured",
        "measured",
        "measured",
        "measured",
        "measured",
        "measured",
        "measured",
        "measured",
        "measured",
        "measured",
        "measured"
      ],
      "CsaImage.ICE_Dims": [
        "X_2_1_1_1_1_1_1_1_1_1_1_27",
        "X_2_1_1_1_1_1_18_1_1_2_1_27",
        "X_2_1_1_1_1_1_2_1_1_3_1_27",
        "X_2_1_1_1_1_1_19_1_1_4_1_27",
        "X_2_1_1_1_1_1_3_1_1_5_1_27",
        "X_2_1_1_1_1_1_20_1_1_6_1_27",
        "X_2_1_1_1_1_1_4_1_1_7_1_27",
        "X_2_1_1_1_1_1_21_1_1_8_1_27",
        "X_2_1_1_1_1_1_5_1_1_9_1_27",
        "X_2_1_1_1_1_1_22_1_1_10_1_27",
        "X_2_1_1_1_1_1_6_1_1_11_1_27",
        "X_2_1_1_1_1_1_23_1_1_12_1_27",
        "X_2_1_1_1_1_1_7_1_1_13_1_27",
        "X_2_1_1_1_1_1_24_1_1_14_1_27",
        "X_2_1_1_1_1_1_8_1_1_15_1_27",
        "X_2_1_1_1_1_1_25_1_1_16_1_27",
        "X_2_1_1_1_1_1_9_1_1_17_1_27",
        "X_2_1_1_1_1_1_26_1_1_18_1_27",
        "X_2_1_1_1_1_1_10_1_1_19_1_27",
        "X_2_1_1_1_1_1_27_1_1_20_1_27",
        "X_2_1_1_1_1_1_11_1_1_21_1_27",
        "X_2_1_1_1_1_1_28_1_1_22_1_27",
        "X_2_1_1_1_1_1_12_1_1_23_1_27",
        "X_2_1_1_1_1_1_29_1_1_24_1_27",
        "X_2_1_1_1_1_1_13_1_1_25_1_27",
        "X_2_1_1_1_1_1_30_1_1_26_1_27",
        "X_2_1_1_1_1_1_14_1_1_27_1_27",
        "X_2_1_1_1_1_1_31_1_1_28_1_27",
        "X_2_1_1_1_1_1_15_1_1_29_1_27",
        "X_2_1_1_1_1_1_32_1_1_30_1_27",
        "X_2_1_1_1_1_1_16_1_1_31_1_27",
        "X_2_1_1_1_1_1_33_1_1_32_1_27",
        "X_2_1_1_1_1_1_17_1_1_33_1_27"
      ],
      "CsaImage.ProtocolSliceNumber": [
        0,
        1,
        2,
        3,
        4,
        5,
        6,
        7,
        8,
        9,
        10,
        11,
        12,
        13,
        14,
        15,
        16,
        17,
        18,
        19,
        20,
        21,
        22,
        23,
        24,
        25,
        26,
        27,
        28,
        29,
        30,
        31,
        32
      ],
      "CsaImage.RFSWDDataType": [
        "predicted",
        "measured",
        "predicted",
        "measured",
        "predicted",
        "measured",
        "measured",
        "measured",
        "measured",
        "measured",
        "measured",
        "measured",
        "measured",
        "measured",
        "measured",
        "measured",
        "measured",
        "measured",
        "measured",
        "measured",
        "measured",
        "measured",
        "measured",
        "measured",
        "measured",
        "measured",
        "measured",
        "measured",
        "measured",
        "measured",
        "measured",
        "measured",
        "measured"
      ],
      "CsaImage.SlicePosition_PCS": [
        [
          -92.73756028,
          -116.82773639,
          -15.22733515
        ],
        [
          -92.67308045,
          -115.16006519,
          -11.86918085
        ],
        [
          -92.60860062,
          -113.49239399,
          -8.51102274
        ],
        [
          -92.54412103,
          -111.82472278,
          -5.15286844
        ],
        [
          -92.47964121,
          -110.15705349,
          -1.79471033
        ],
        [
          -92.41516138,
          -108.48938228,
          1.56344778
        ],
        [
          -92.35068155,
          -106.82171108,
          4.92160208
        ],
        [
          -92.28620172,
          -105.15403988,
          8.27976019
        ],
        [
          -92.22172189,
          -103.48636867,
          11.6379183
        ],
        [
          -92.15724207,
          -101.81869747,
          14.9960726
        ],
        [
          -92.09276224,
          -100.15102722,
          18.35423071
        ],
        [
          -92.02828241,
          -98.48335602,
          21.71238691
        ],
        [
          -91.96380282,
          -96.81568577,
          25.07054312
        ],
        [
          -91.89932299,
          -95.14801456,
          28.42870028
        ],
        [
          -91.83484317,
          -93.48034336,
          31.78685648
        ],
        [
          -91.77036334,
          -91.81267263,
          35.14501364
        ],
        [
          -91.70588351,
          -90.1450019,
          38.50316984
        ],
        [
          -91.64140368,
          -88.47733094,
          41.86132652
        ],
        [
          -91.57692385,
          -86.80965997,
          45.2194832
        ],
        [
          -91.51244403,
          -85.14198911,
          48.57763988
        ],
        [
          -91.4479642,
          -83.47431816,
          51.93579657
        ],
        [
          -91.38348437,
          -81.80664732,
          55.29395277
        ],
        [
          -91.31900454,
          -80.13897659,
          58.65210993
        ],
        [
          -91.25452472,
          -78.47130539,
          62.01026709
        ],
        [
          -91.19004489,
          -76.80363418,
          65.36842329
        ],
        [
          -91.12556506,
          -75.13596393,
          68.72657949
        ],
        [
          -91.06108523,
          -73.46829273,
          72.0847357
        ],
        [
          -90.9966054,
          -71.80062153,
          75.44289381
        ],
        [
          -90.93212558,
          -70.13295128,
          78.80105001
        ],
        [
          -90.86764575,
          -68.46528103,
          82.15920813
        ],
        [
          -90.80316592,
          -66.79760982,
          85.51736242
        ],
        [
          -90.73868657,
          -65.12993862,
          88.87552053
        ],
        [
          -90.67420674,
          -63.46226742,
          92.23367483
        ]
      ],
      "CsaImage.TimeAfterStart": [
        0.405,
        0.61,
        0.415,
        0.6225,
        0.4275,
        0.635,
        0.44,
        0.6475,
        0.4525,
        0.66,
        0.465,
        0.6725,
        0.4775,
        0.6825,
        0.49,
        0.695,
        0.5,
        0.7075,
        0.5125,
        0.72,
        0.525,
        0.7325,
        0.5375,
        0.745,
        0.55,
        0.7575,
        0.5625,
        0.77,
        0.575,
        0.78,
        0.5875,
        0.7925,
        0.5975
      ],
      "ImagePositionPatient": [
        [
          -92.73756,
          -116.827736,
          -15.227335
        ],
        [
          -92.67308,
          -115.160065,
          -11.869181
        ],
        [
          -92.608601,
          -113.492394,
          -8.511023
        ],
        [
          -92.544121,
          -111.824723,
          -5.152868
        ],
        [
          -92.479641,
          -110.157053,
          -1.79471
        ],
        [
          -92.415161,
          -108.489382,
          1.563448
        ],
        [
          -92.350682,
          -106.821711,
          4.921602
        ],
        [
          -92.286202,
          -105.15404,
          8.27976
        ],
        [
          -92.221722,
          -103.486369,
          11.637918
        ],
        [
          -92.157242,
          -101.818697,
          14.996073
        ],
        [
          -92.092762,
          -100.151027,
          18.354231
        ],
        [
          -92.028282,
          -98.483356,
          21.712387
        ],
        [
          -91.963803,
          -96.815686,
          25.070543
        ],
        [
          -91.899323,
          -95.148015,
          28.4287
        ],
        [
          -91.834843,
          -93.480343,
          31.786856
        ],
        [
          -91.770363,
          -91.812673,
          35.145014
        ],
        [
          -91.705884,
          -90.145002,
          38.50317
        ],
        [
          -91.641404,
          -88.477331,
          41.861327
        ],
        [
          -91.576924,
          -86.80966,
          45.219483
        ],
        [
          -91.512444,
          -85.141989,
          48.57764
        ],
        [
          -91.447964,
          -83.474318,
          51.935797
        ],
        [
          -91.383484,
          -81.806647,
          55.293953
        ],
        [
          -91.319005,
          -80.138977,
          58.65211
        ],
        [
          -91.254525,
          -78.471305,
          62.010267
        ],
        [
          -91.190045,
          -76.803634,
          65.368423
        ],
        [
          -91.125565,
          -75.135964,
          68.726579
        ],
        [
          -91.061085,
          -73.468293,
          72.084736
        ],
        [
          -90.996605,
          -71.800622,
          75.442894
        ],
        [
          -90.932126,
          -70.132951,
          78.80105
        ],
        [
          -90.867646,
          -68.465281,
          82.159208
        ],
        [
          -90.803166,
          -66.79761,
          85.517362
        ],
        [
          -90.738687,
          -65.129939,
          88.875521
        ],
        [
          -90.674207,
          -63.462267,
          92.233675
        ]
      ],
      "InstanceCreationTime": [
        "112755.921000",
        "112757.250000",
        "112755.953000",
        "112757.265000",
        "112755.953000",
        "112757.265000",
        "112755.953000",
        "112757.265000",
        "112755.968000",
        "112757.281000",
        "112757.171000",
        "112757.281000",
        "112757.187000",
        "112757.296000",
        "112757.187000",
        "112757.296000",
        "112757.203000",
        "112757.312000",
        "112757.203000",
        "112757.312000",
        "112757.218000",
        "112757.312000",
        "112757.234000",
        "112757.312000",
        "112757.234000",
        "112757.328000",
        "112757.234000",
        "112757.468000",
        "112757.234000",
        "112757.468000",
        "112757.250000",
        "112757.531000",
        "112757.250000"
      ],
      "InstanceNumber": [
        1,
        2,
        3,
        4,
        5,
        6,
        7,
        8,
        9,
        10,
        11,
        12,
        13,
        14,
        15,
        16,
        17,
        18,
        19,
        20,
        21,
        22,
        23,
        24,
        25,
        26,
        27,
        28,
        29,
        30,
        31,
        32,
        33
      ],
      "LargestImagePixelValue": [
        4094,
        4089,
        4092,
        4085,
        4094,
        4092,
        4089,
        4092,
        4091,
        4085,
        4094,
        4089,
        4088,
        4084,
        4079,
        4083,
        4092,
        4092,
        4068,
        4091,
        4090,
        4087,
        4091,
        4088,
        4091,
        4094,
        4094,
        4091,
        4094,
        4094,
        4093,
        4093,
        4094
      ],
      "SliceLocation": [
        -67.185516,
        -63.435518,
        -59.685516,
        -55.935518,
        -52.185518,
        -48.435516,
        -44.685518,
        -40.935517,
        -37.185515,
        -33.435517,
        -29.685516,
        -25.935517,
        -22.185517,
        -18.435517,
        -14.685517,
        -10.935517,
        -7.185517,
        -3.435517,
        0.314483,
        4.064483,
        7.814483,
        11.564483,
        15.314483,
        19.064484,
        22.814483,
        26.564483,
        30.314482,
        34.064484,
        37.814483,
        41.564484,
        45.314482,
        49.064484,
        52.814482
      ],
      "SmallestImagePixelValue": [
        2,
        4,
        0,
        2,
        1,
        0,
        12,
        9,
        2,
        7,
        9,
        6,
        0,
        18,
        1,
        2,
        13,
        25,
        1,
        2,
        13,
        1,
        11,
        3,
        6,
        1,
        0,
        3,
        2,
        6,
        10,
        0,
        4
      ],
      "WindowCenter": [
        -374.0,
        -354.0,
        -326.0,
        -426.0,
        -376.0,
        -302.0,
        -234.0,
        -258.0,
        -248.0,
        -220.0,
        -164.0,
        -116.0,
        -84.0,
        -38.0,
        -26.0,
        -22.0,
        -40.0,
        -64.0,
        -118.0,
        -180.0,
        -220.0,
        -250.0,
        -222.0,
        -234.0,
        -214.0,
        -170.0,
        -188.0,
        -200.0,
        -206.0,
        -272.0,
        -310.0,
        -376.0,
        -430.0
      ],
      "WindowWidth": [
        4612.0,
        4526.0,
        4462.0,
        4380.0,
        4270.0,
        4216.0,
        4180.0,
        4188.0,
        4080.0,
        3972.0,
        3830.0,
        3746.0,
        3680.0,
        3666.0,
        3660.0,
        3680.0,
        3652.0,
        3668.0,
        3648.0,
        3676.0,
        3664.0,
        3676.0,
        3692.0,
        3692.0,
        3784.0,
        3848.0,
        3942.0,
        4106.0,
        4148.0,
        4284.0,
        4366.0,
        4460.0,
        4536.0
      ]
    }
  }
}
