{
  "AcquisitionMatrixPE": 64,
  "AcquisitionNumber": 1,
  "AcquisitionTime": "13:47:37.660000",
  "BandwidthPerPixelPhaseEncode": 30.637,
  "BaseResolution": 64,
  "BidsGuess": [
    "func",
    "_acq-epfid2_dir-AP_run-3_bold"
],
  "CoilCombinationMethod": "Sum of Squares",
  "CoilString": "C:HEA;HEP",
  "ConversionSoftware": "dcm2niix",
  "ConversionSoftwareVersion": "v1.0.20240202",
  "DerivedVendorReportedEchoSpacing": 0.000510004,
  "DeviceSerialNumber": "35119",
  "DwellTime": 3.5e-06,
  "EchoTime": 0.03,
  "EffectiveEchoSpacing": 0.000510004,
  "FlipAngle": 78,
  "HeudiconvVersion": "1.1.6",
  "ImageComments": "V",
  "ImageOrientationPatientDICOM": [1, 0, 0, 0, 0.882127, -0.471012],
  "ImageOrientationText": "Tra>Cor(-28.1)",
  "ImageType": [
    "ORIGINAL",
    "PRIMARY",
    "M",
    "ND",
    "MOSAIC"
],
  "ImagingFrequency": 123.251856,
  "InPlanePhaseEncodingDirectionDICOM": "COL",
  "InstitutionAddress": "Chaucer Road  15,Cambridge,UK,GB,CB2 2EF",
  "InstitutionName": "MRC-CBU",
  "MRAcquisitionType": "2D",
  "MagneticFieldStrength": 3,
  "Manufacturer": "Siemens",
  "ManufacturersModelName": "TrioTim",
  "MatrixCoilMode": "SENSE",
  "Modality": "MR",
  "NonlinearGradientCorrection": false,
  "PartialFourier": 1,
  "PatientPosition": "HFS",
  "PercentPhaseFOV": 100,
  "PercentSampling": 100,
  "PhaseEncodingDirection": "j-",
  "PhaseEncodingSteps": 64,
  "PhaseResolution": 1,
  "PixelBandwidth": 2230,
  "ProcedureStepDescription": "CBU^Neuroimaging",
  "ProtocolName": "CBU_DWEPI_BOLD210",
  "PulseSequenceDetails": "%SiemensSeq%\\ep2d_bold",
  "ReceiveCoilName": "HeadMatrix",
  "ReconMatrixPE": 64,
  "RepetitionTime": 2,
  "SAR": 0.144967,
  "ScanOptions": "FS",
  "ScanningSequence": "EP",
  "SequenceName": "*epfid2d1_64",
  "SequenceVariant": "SK",
  "SeriesDescription": "CBU_DWEPI_BOLD210",
  "SeriesNumber": 3,
  "ShimSetting": [-7826, -8719, -2019, 790, 7, -29, -65, 87],
  "SliceThickness": 3,
  "SliceTiming": [0, 1.0325, 0.06, 1.095, 0.12, 1.155, 0.1825, 1.215, 0.2425, 1.2775, 0.3025, 1.3375, 0.365, 1.3975, 0.425, 1.46, 0.485, 1.52, 0.5475, 1.58, 0.6075, 1.6425, 0.6675, 1.7025, 0.73, 1.7625, 0.79, 1.825, 0.85, 1.885, 0.9125, 1.945, 0.9725],
  "SoftwareVersions": "syngo MR B15",
  "SpacingBetweenSlices": 3.75,
  "StationName": "MRC35119",
  "TaskName": "faceprocessing",
  "TotalReadoutTime": 0.0321303,
  "TxRefAmp": 326.846,
  "dcmmeta_affine": [
    [-3.0, 0.0, 0.0, 98.03389739990234],
    [0.0, 2.64638090133667, -1.7662949562072754, -44.47935485839844],
    [0.0, 1.4130359888076782, 3.307976245880127, -92.450927734375],
    [0.0, 0.0, 0.0, 1.0]
],
  "dcmmeta_reorient_transform": [
    [0.0, -1.0, 0.0, 63.0],
    [1.0, 0.0, 0.0, 0.0],
    [0.0, 0.0, 1.0, 0.0],
    [0.0, 0.0, 0.0, 1.0]
],
  "dcmmeta_shape": [64, 64, 33, 210],
  "dcmmeta_slice_dim": 2,
  "dcmmeta_version": 0.6,
  "global": {
    "const": {
      "AcquisitionMatrix": [64, 0, 0, 64],
      "AngioFlag": "N",
      "BitsAllocated": 16,
      "BitsStored": 12,
      "Columns": 384,
      "EchoNumbers": 1,
      "EchoTime": 30.0,
      "EchoTrainLength": 1,
      "FlipAngle": 78.0,
      "HighBit": 11,
      "ImageOrientationPatient": [1.0, 0.0, 0.0, 0.0, 0.882127, -0.471012],
      "ImagePositionPatient": [-578.033898, -545.663607, 222.656104],
      "ImageType": [
        "ORIGINAL",
        "PRIMARY",
        "M",
        "ND",
        "MOSAIC"
],
      "ImagedNucleus": "1H",
      "ImagingFrequency": 123.251856,
      "InPlanePhaseEncodingDirection": "COL",
      "MRAcquisitionType": "2D",
      "MagneticFieldStrength": 3.0,
      "Manufacturer": "SIEMENS",
      "ManufacturerModelName": "TrioTim",
      "Modality": "MR",
      "NumberOfAverages": 1.0,
      "NumberOfPhaseEncodingSteps": 64,
      "PercentPhaseFieldOfView": 100.0,
      "PercentSampling": 100.0,
      "PerformedProcedureStepStartTime": "133852.171000",
      "PhotometricInterpretation": "MONOCHROME2",
      "PixelAspectRatio": [1, 1],
      "PixelBandwidth": 2230.0,
      "PixelRepresentation": 0,
      "PixelSpacing": [3.0, 3.0],
      "ProtocolName": "CBU_DWEPI_BOLD210",
      "RepetitionTime": 2000.0,
      "Rows": 384,
      "SAR": 0.144967,
      "SamplesPerPixel": 1,
      "ScanOptions": "FS",
      "ScanningSequence": "EP",
      "SequenceName": "*epfid2d1_64",
      "SequenceVariant": "SK",
      "SeriesDescription": "CBU_DWEPI_BOLD210",
      "SeriesNumber": 3,
      "SeriesTime": "134741.000000",
      "SliceLocation": -60.603111,
      "SliceThickness": 3.0,
      "SmallestImagePixelValue": 0,
      "SoftwareVersions": "syngo MR B15",
      "SpacingBetweenSlices": 3.75,
      "SpecificCharacterSet": "ISO_IR 100",
      "StudyID": "1",
      "StudyTime": "133852.093000",
      "TransmitCoilName": "Body",
      "VariableFlipAngleFlag": "N",
      "WindowCenterWidthExplanation": "Algo1",
      "dBdt": 0.0},
    "slices": {}
  },
  "time": {
    "samples": {
      "AcquisitionNumber": [1, 2, 3, 4, 5, 6, 7, 8, 9, 10, 11, 12, 13, 14, 15, 16, 17, 18, 19, 20, 21, 22, 23, 24, 25, 26, 27, 28, 29, 30, 31, 32, 33, 34, 35, 36, 37, 38, 39, 40, 41, 42, 43, 44, 45, 46, 47, 48, 49, 50, 51, 52, 53, 54, 55, 56, 57, 58, 59, 60, 61, 62, 63, 64, 65, 66, 67, 68, 69, 70, 71, 72, 73, 74, 75, 76, 77, 78, 79, 80, 81, 82, 83, 84, 85, 86, 87, 88, 89, 90, 91, 92, 93, 94, 95, 96, 97, 98, 99, 100, 101, 102, 103, 104, 105, 106, 107, 108, 109, 110, 111, 112, 113, 114, 115, 116, 117, 118, 119, 120, 121, 122, 123, 124, 125, 126, 127, 128, 129, 130, 131, 132, 133, 134, 135, 136, 137, 138, 139, 140, 141, 142, 143, 144, 145, 146, 147, 148, 149, 150, 151, 152, 153, 154, 155, 156, 157, 158, 159, 160, 161, 162, 163, 164, 165, 166, 167, 168, 169, 170, 171, 172, 173, 174, 175, 176, 177, 178, 179, 180, 181, 182, 183, 184, 185, 186, 187, 188, 189, 190, 191, 192, 193, 194, 195, 196, 197, 198, 199, 200, 201, 202, 203, 204, 205, 206, 207, 208, 209, 210],
      "AcquisitionTime": ["134737.660000", "134739.667500", "134741.675000", "134743.682500", "134745.690000", "134747.700000", "134749.707500", "134751.715000", "134753.722500", "134755.730000", "134757.740000", "134759.747500", "134801.755000", "134803.762500", "134805.772500", "134807.780000", "134809.787500", "134811.795000", "134813.802500", "134815.812500", "134817.820000", "134819.827500", "134821.835000", "134823.842500", "134825.852500", "134827.860000", "134829.867500", "134831.875000", "134833.882500", "134835.892500", "134837.900000", "134839.907500", "134841.915000", "134843.925000", "134845.932500", "134847.940000", "134849.947500", "134851.955000", "134853.965000", "134855.972500", "134857.980000", "134859.987500", "134901.995000", "134904.005000", "134906.012500", "134908.020000", "134910.027500", "134912.037500", "134914.045000", "134916.052500", "134918.060000", "134920.067500", "134922.077500", "134924.085000", "134926.092500", "134928.100000", "134930.107500", "134932.117500", "134934.125000", "134936.132500", "134938.140000", "134940.150000", "134942.157500", "134944.165000", "134946.172500", "134948.180000", "134950.190000", "134952.197500", "134954.205000", "134956.212500", "134958.220000", "135000.230000", "135002.237500", "135004.245000", "135006.252500", "135008.260000", "135010.270000", "135012.277500", "135014.285000", "135016.292500", "135018.302500", "135020.310000", "135022.317500", "135024.325000", "135026.332500", "135028.342500", "135030.350000", "135032.357500", "135034.365000", "135036.372500", "135038.382500", "135040.390000", "135042.397500", "135044.405000", "135046.415000", "135048.422500", "135050.430000", "135052.437500", "135054.445000", "135056.455000", "135058.462500", "135100.470000", "135102.477500", "135104.485000", "135106.495000", "135108.502500", "135110.510000", "135112.517500", "135114.527500", "135116.535000", "135118.542500", "135120.550000", "135122.557500", "135124.567500", "135126.575000", "135128.582500", "135130.590000", "135132.597500", "135134.607500", "135136.615000", "135138.622500", "135140.630000", "135142.637500", "135144.647500", "135146.655000", "135148.662500", "135150.670000", "135152.680000", "135154.687500", "135156.695000", "135158.702500", "135200.710000", "135202.720000", "135204.727500", "135206.735000", "135208.742500", "135210.750000", "135212.760000", "135214.767500", "135216.775000", "135218.782500", "135220.792500", "135222.800000", "135224.807500", "135226.815000", "135228.822500", "135230.832500", "135232.840000", "135234.847500", "135236.855000", "135238.862500", "135240.872500", "135242.880000", "135244.887500", "135246.895000", "135248.905000", "135250.912500", "135252.920000", "135254.927500", "135256.935000", "135258.945000", "135300.952500", "135302.960000", "135304.967500", "135306.975000", "135308.985000", "135310.992500", "135313.000000", "135315.007500", "135317.015000", "135319.025000", "135321.032500", "135323.040000", "135325.047500", "135327.057500", "135329.065000", "135331.072500", "135333.080000", "135335.087500", "135337.097500", "135339.105000", "135341.112500", "135343.120000", "135345.127500", "135347.137500", "135349.145000", "135351.152500", "135353.160000", "135355.170000", "135357.177500", "135359.185000", "135401.192500", "135403.200000", "135405.210000", "135407.217500", "135409.225000", "135411.232500", "135413.240000", "135415.250000", "135417.257500", "135419.265000", "135421.272500", "135423.282500", "135425.290000", "135427.297500", "135429.305000", "135431.312500", "135433.322500", "135435.330000", "135437.337500"],
      "ContentTime": ["134741.000000", "134742.984000", "134744.984000", "134747.000000", "134748.984000", "134750.984000", "134752.984000", "134754.984000", "134757.000000", "134758.984000", "134801.000000", "134802.984000", "134804.984000", "134806.984000", "134808.984000", "134810.984000", "134812.984000", "134815.484000", "134816.984000", "134818.984000", "134820.984000", "134822.984000", "134824.984000", "134826.984000", "134829.484000", "134831.484000", "134832.984000", "134834.984000", "134836.984000", "134838.984000", "134840.984000", "134842.984000", "134845.484000", "134847.000000", "134848.984000", "134850.984000", "134852.984000", "134855.484000", "134857.000000", "134858.984000", "134900.984000", "134902.984000", "134904.984000", "134907.000000", "134908.984000", "134911.484000", "134912.984000", "134914.984000", "134916.984000", "134918.984000", "134921.500000", "134922.984000", "134925.000000", "134927.484000", "134928.984000", "134930.984000", "134932.984000", "134934.984000", "134936.984000", "134939.484000", "134940.984000", "134943.484000", "134945.484000", "134947.000000", "134948.984000", "134950.984000", "134953.000000", "134954.984000", "134956.984000", "134959.000000", "135000.984000", "135003.484000", "135004.984000", "135006.984000", "135008.984000", "135011.000000", "135013.484000", "135014.984000", "135016.984000", "135018.984000", "135021.000000", "135022.984000", "135024.984000", "135026.984000", "135028.984000", "135030.984000", "135032.984000", "135035.484000", "135036.984000", "135038.984000", "135040.984000", "135043.484000", "135045.000000", "135046.984000", "135048.984000", "135051.484000", "135052.984000", "135054.984000", "135056.984000", "135058.984000", "135100.984000", "135103.000000", "135104.984000", "135107.484000", "135109.484000", "135110.984000", "135112.984000", "135114.984000", "135117.000000", "135118.984000", "135120.984000", "135122.984000", "135124.984000", "135126.984000", "135128.984000", "135131.000000", "135132.984000", "135134.984000", "135136.984000", "135139.484000", "135140.984000", "135142.984000", "135144.984000", "135146.984000", "135148.984000", "135150.984000", "135152.984000", "135155.484000", "135156.984000", "135158.984000", "135200.984000", "135202.984000", "135204.984000", "135206.984000", "135208.984000", "135211.484000", "135213.484000", "135214.984000", "135216.984000", "135218.984000", "135220.984000", "135222.984000", "135224.984000", "135227.484000", "135228.984000", "135230.984000", "135232.984000", "135234.984000", "135236.984000", "135238.984000", "135240.984000", "135243.484000", "135244.984000", "135246.984000", "135249.000000", "135250.984000", "135252.984000", "135254.984000", "135257.484000", "135258.984000", "135300.984000", "135302.984000", "135304.984000", "135306.984000", "135308.984000", "135310.984000", "135312.984000", "135315.484000", "135316.984000", "135318.984000", "135320.984000", "135323.484000", "135324.984000", "135326.984000", "135328.984000", "135330.984000", "135332.984000", "135334.984000", "135336.984000", "135338.984000", "135340.984000", "135342.984000", "135344.984000", "135347.484000", "135349.484000", "135350.984000", "135352.984000", "135354.984000", "135356.984000", "135358.984000", "135400.984000", "135402.984000", "135404.984000", "135406.984000", "135408.984000", "135410.984000", "135412.984000", "135414.984000", "135416.984000", "135419.484000", "135420.984000", "135422.984000", "135424.984000", "135426.984000", "135428.984000", "135430.984000", "135432.984000", "135435.484000", "135436.984000", "135438.984000"],
      "InstanceCreationTime": ["134741.000000", "134742.984000", "134744.984000", "134747.000000", "134748.984000", "134750.984000", "134752.984000", "134754.984000", "134757.000000", "134758.984000", "134801.000000", "134802.984000", "134804.984000", "134806.984000", "134808.984000", "134810.984000", "134812.984000", "134815.484000", "134816.984000", "134818.984000", "134820.984000", "134822.984000", "134824.984000", "134826.984000", "134829.484000", "134831.484000", "134832.984000", "134834.984000", "134836.984000", "134838.984000", "134840.984000", "134842.984000", "134845.484000", "134847.000000", "134848.984000", "134850.984000", "134852.984000", "134855.484000", "134857.000000", "134858.984000", "134900.984000", "134902.984000", "134904.984000", "134907.000000", "134908.984000", "134911.484000", "134912.984000", "134914.984000", "134916.984000", "134918.984000", "134921.500000", "134922.984000", "134925.000000", "134927.484000", "134928.984000", "134930.984000", "134932.984000", "134934.984000", "134936.984000", "134939.484000", "134940.984000", "134943.484000", "134945.484000", "134947.000000", "134948.984000", "134950.984000", "134953.000000", "134954.984000", "134956.984000", "134959.000000", "135000.984000", "135003.484000", "135004.984000", "135006.984000", "135008.984000", "135011.000000", "135013.484000", "135014.984000", "135016.984000", "135018.984000", "135021.000000", "135022.984000", "135024.984000", "135026.984000", "135028.984000", "135030.984000", "135032.984000", "135035.484000", "135036.984000", "135038.984000", "135040.984000", "135043.484000", "135045.000000", "135046.984000", "135048.984000", "135051.484000", "135052.984000", "135054.984000", "135056.984000", "135058.984000", "135100.984000", "135103.000000", "135104.984000", "135107.484000", "135109.484000", "135110.984000", "135112.984000", "135114.984000", "135117.000000", "135118.984000", "135120.984000", "135122.984000", "135124.984000", "135126.984000", "135128.984000", "135131.000000", "135132.984000", "135134.984000", "135136.984000", "135139.484000", "135140.984000", "135142.984000", "135144.984000", "135146.984000", "135148.984000", "135150.984000", "135152.984000", "135155.484000", "135156.984000", "135158.984000", "135200.984000", "135202.984000", "135204.984000", "135206.984000", "135208.984000", "135211.484000", "135213.484000", "135214.984000", "135216.984000", "135218.984000", "135220.984000", "135222.984000", "135224.984000", "135227.484000", "135228.984000", "135230.984000", "135232.984000", "135234.984000", "135236.984000", "135238.984000", "135240.984000", "135243.484000", "135244.984000", "135246.984000", "135249.000000", "135250.984000", "135252.984000", "135254.984000", "135257.484000", "135258.984000", "135300.984000", "135302.984000", "135304.984000", "135306.984000", "135308.984000", "135310.984000", "135312.984000", "135315.484000", "135316.984000", "135318.984000", "135320.984000", "135323.484000", "135324.984000", "135326.984000", "135328.984000", "135330.984000", "135332.984000", "135334.984000", "135336.984000", "135338.984000", "135340.984000", "135342.984000", "135344.984000", "135347.484000", "135349.484000", "135350.984000", "135352.984000", "135354.984000", "135356.984000", "135358.984000", "135400.984000", "135402.984000", "135404.984000", "135406.984000", "135408.984000", "135410.984000", "135412.984000", "135414.984000", "135416.984000", "135419.484000", "135420.984000", "135422.984000", "135424.984000", "135426.984000", "135428.984000", "135430.984000", "135432.984000", "135435.484000", "135436.984000", "135438.984000"],
      "InstanceNumber": [1, 2, 3, 4, 5, 6, 7, 8, 9, 10, 11, 12, 13, 14, 15, 16, 17, 18, 19, 20, 21, 22, 23, 24, 25, 26, 27, 28, 29, 30, 31, 32, 33, 34, 35, 36, 37, 38, 39, 40, 41, 42, 43, 44, 45, 46, 47, 48, 49, 50, 51, 52, 53, 54, 55, 56, 57, 58, 59, 60, 61, 62, 63, 64, 65, 66, 67, 68, 69, 70, 71, 72, 73, 74, 75, 76, 77, 78, 79, 80, 81, 82, 83, 84, 85, 86, 87, 88, 89, 90, 91, 92, 93, 94, 95, 96, 97, 98, 99, 100, 101, 102, 103, 104, 105, 106, 107, 108, 109, 110, 111, 112, 113, 114, 115, 116, 117, 118, 119, 120, 121, 122, 123, 124, 125, 126, 127, 128, 129, 130, 131, 132, 133, 134, 135, 136, 137, 138, 139, 140, 141, 142, 143, 144, 145, 146, 147, 148, 149, 150, 151, 152, 153, 154, 155, 156, 157, 158, 159, 160, 161, 162, 163, 164, 165, 166, 167, 168, 169, 170, 171, 172, 173, 174, 175, 176, 177, 178, 179, 180, 181, 182, 183, 184, 185, 186, 187, 188, 189, 190, 191, 192, 193, 194, 195, 196, 197, 198, 199, 200, 201, 202, 203, 204, 205, 206, 207, 208, 209, 210],
      "LargestImagePixelValue": [1813, 1759, 1716, 1695, 1722, 1722, 1702, 1711, 1714, 1710, 1708, 1689, 1706, 1710, 1706, 1727, 1711, 1728, 1722, 1704, 1703, 1699, 1714, 1709, 1714, 1721, 1699, 1727, 1712, 1726, 1708, 1707, 1715, 1701, 1701, 1703, 1698, 1711, 1709, 1710, 1703, 1718, 1710, 1702, 1716, 1711, 1726, 1713, 1703, 1716, 1722, 1726, 1700, 1712, 1707, 1695, 1708, 1692, 1700, 1701, 1697, 1711, 1695, 1726, 1722, 1712, 1703, 1717, 1712, 1728, 1689, 1718, 1705, 1710, 1723, 1706, 1711, 1708, 1702, 1695, 1690, 1692, 1702, 1704, 1690, 1703, 1715, 1714, 1676, 1708, 1700, 1700, 1705, 1705, 1707, 1692, 1716, 1711, 1704, 1712, 1699, 1692, 1693, 1707, 1728, 1689, 1692, 1690, 1679, 1685, 1684, 1684, 1671, 1695, 1701, 1691, 1698, 1685, 1680, 1702, 1681, 1694, 1698, 1684, 1710, 1680, 1691, 1676, 1710, 1704, 1714, 1711, 1697, 1681, 1685, 1674, 1684, 1692, 1709, 1695, 1710, 1690, 1676, 1679, 1699, 1674, 1707, 1683, 1740, 1672, 1721, 1691, 1735, 1756, 1719, 1681, 1693, 1728, 1683, 1673, 1708, 1715, 1704, 1681, 1706, 1705, 1695, 1721, 1700, 1713, 1687, 1707, 1697, 1700, 1707, 1703, 1713, 1723, 1704, 1694, 1711, 1707, 1698, 1714, 1714, 1722, 1727, 1718, 1690, 1725, 1720, 1702, 1690, 1713, 1718, 1729, 1715, 1689, 1711, 1711, 1713, 1729, 1713, 1734, 1709, 1698, 1676, 1692, 1691, 1689],
      "WindowCenter": [735.0, 731.0, 729.0, 728.0, 728.0, 728.0, 728.0, 728.0, 728.0, 729.0, 728.0, 727.0, 727.0, 728.0, 728.0, 729.0, 728.0, 729.0, 729.0, 729.0, 730.0, 730.0, 729.0, 728.0, 730.0, 731.0, 729.0, 729.0, 729.0, 729.0, 728.0, 729.0, 730.0, 729.0, 728.0, 729.0, 730.0, 729.0, 728.0, 728.0, 728.0, 730.0, 729.0, 729.0, 729.0, 729.0, 730.0, 731.0, 730.0, 730.0, 729.0, 730.0, 730.0, 729.0, 729.0, 729.0, 728.0, 728.0, 729.0, 729.0, 729.0, 729.0, 729.0, 730.0, 729.0, 731.0, 730.0, 729.0, 728.0, 729.0, 729.0, 731.0, 730.0, 730.0, 730.0, 730.0, 729.0, 729.0, 730.0, 729.0, 729.0, 730.0, 730.0, 731.0, 730.0, 730.0, 731.0, 731.0, 730.0, 731.0, 730.0, 730.0, 729.0, 730.0, 731.0, 730.0, 730.0, 730.0, 730.0, 731.0, 731.0, 730.0, 729.0, 728.0, 728.0, 729.0, 730.0, 729.0, 729.0, 729.0, 728.0, 729.0, 729.0, 731.0, 730.0, 730.0, 730.0, 730.0, 731.0, 731.0, 731.0, 730.0, 730.0, 730.0, 731.0, 730.0, 731.0, 731.0, 733.0, 734.0, 733.0, 732.0, 730.0, 729.0, 729.0, 730.0, 730.0, 731.0, 731.0, 730.0, 730.0, 730.0, 731.0, 731.0, 731.0, 731.0, 731.0, 730.0, 732.0, 729.0, 731.0, 732.0, 732.0, 733.0, 732.0, 732.0, 731.0, 732.0, 732.0, 730.0, 731.0, 731.0, 731.0, 730.0, 731.0, 730.0, 732.0, 734.0, 732.0, 732.0, 731.0, 731.0, 731.0, 730.0, 730.0, 731.0, 731.0, 732.0, 731.0, 732.0, 732.0, 733.0, 731.0, 733.0, 733.0, 733.0, 733.0, 731.0, 730.0, 731.0, 730.0, 729.0, 729.0, 729.0, 730.0, 730.0, 731.0, 730.0, 731.0, 731.0, 731.0, 733.0, 732.0, 732.0, 732.0, 734.0, 734.0, 732.0, 733.0, 732.0],
      "WindowWidth": [1544.0, 1532.0, 1528.0, 1525.0, 1525.0, 1525.0, 1526.0, 1527.0, 1527.0, 1527.0, 1526.0, 1523.0, 1524.0, 1525.0, 1525.0, 1528.0, 1527.0, 1529.0, 1529.0, 1528.0, 1530.0, 1529.0, 1529.0, 1526.0, 1531.0, 1532.0, 1527.0, 1528.0, 1528.0, 1529.0, 1526.0, 1528.0, 1529.0, 1528.0, 1527.0, 1528.0, 1531.0, 1528.0, 1526.0, 1526.0, 1526.0, 1530.0, 1529.0, 1528.0, 1528.0, 1528.0, 1530.0, 1532.0, 1530.0, 1529.0, 1528.0, 1531.0, 1531.0, 1529.0, 1528.0, 1528.0, 1526.0, 1526.0, 1527.0, 1528.0, 1528.0, 1528.0, 1528.0, 1529.0, 1528.0, 1532.0, 1530.0, 1529.0, 1526.0, 1527.0, 1528.0, 1532.0, 1531.0, 1531.0, 1530.0, 1529.0, 1528.0, 1528.0, 1530.0, 1527.0, 1527.0, 1530.0, 1531.0, 1531.0, 1530.0, 1529.0, 1532.0, 1532.0, 1530.0, 1532.0, 1531.0, 1529.0, 1529.0, 1529.0, 1533.0, 1531.0, 1531.0, 1529.0, 1531.0, 1532.0, 1533.0, 1531.0, 1528.0, 1526.0, 1525.0, 1527.0, 1530.0, 1528.0, 1527.0, 1527.0, 1526.0, 1527.0, 1527.0, 1532.0, 1531.0, 1531.0, 1531.0, 1530.0, 1532.0, 1532.0, 1531.0, 1530.0, 1530.0, 1530.0, 1532.0, 1529.0, 1532.0, 1532.0, 1537.0, 1538.0, 1536.0, 1533.0, 1530.0, 1528.0, 1527.0, 1531.0, 1531.0, 1533.0, 1533.0, 1530.0, 1530.0, 1530.0, 1531.0, 1531.0, 1532.0, 1531.0, 1533.0, 1529.0, 1535.0, 1529.0, 1533.0, 1536.0, 1535.0, 1536.0, 1534.0, 1533.0, 1531.0, 1534.0, 1534.0, 1531.0, 1533.0, 1532.0, 1532.0, 1531.0, 1533.0, 1530.0, 1536.0, 1538.0, 1535.0, 1533.0, 1533.0, 1532.0, 1532.0, 1530.0, 1531.0, 1532.0, 1532.0, 1535.0, 1532.0, 1534.0, 1534.0, 1536.0, 1533.0, 1537.0, 1536.0, 1538.0, 1537.0, 1533.0, 1529.0, 1533.0, 1529.0, 1527.0, 1527.0, 1528.0, 1529.0, 1530.0, 1532.0, 1531.0, 1531.0, 1533.0, 1533.0, 1536.0, 1534.0, 1535.0, 1534.0, 1539.0, 1538.0, 1535.0, 1536.0, 1533.0]
    },
    "slices": {}
  }
}