{
  "AcquisitionMatrixPE": 64,
  "AcquisitionNumber": 1,
  "AcquisitionTime": "14:49:16.165000",
  "BandwidthPerPixelPhaseEncode": 30.637,
  "BaseResolution": 64,
  "BidsGuess": [
    "func",
    "_acq-epfid2_dir-AP_run-11_bold"
],
  "CoilCombinationMethod": "Sum of Squares",
  "CoilString": "C:HEA;HEP",
  "ConversionSoftware": "dcm2niix",
  "ConversionSoftwareVersion": "v1.0.20240202",
  "DerivedVendorReportedEchoSpacing": 0.000510004,
  "DeviceSerialNumber": "35119",
  "DwellTime": 3.5e-06,
  "EchoTime": 0.03,
  "EffectiveEchoSpacing": 0.000510004,
  "FlipAngle": 78,
  "HeudiconvVersion": "1.1.6",
  "ImageComments": "V",
  "ImageOrientationPatientDICOM": [1, 0, 0, 0, 0.882127, -0.471012],
  "ImageOrientationText": "Tra>Cor(-28.1)",
  "ImageType": [
    "ORIGINAL",
    "PRIMARY",
    "M",
    "ND",
    "MOSAIC"
],
  "ImagingFrequency": 123.251859,
  "InPlanePhaseEncodingDirectionDICOM": "COL",
  "InstitutionAddress": "Chaucer Road  15,Cambridge,UK,GB,CB2 2EF",
  "InstitutionName": "MRC-CBU",
  "MRAcquisitionType": "2D",
  "MagneticFieldStrength": 3,
  "Manufacturer": "Siemens",
  "ManufacturersModelName": "TrioTim",
  "MatrixCoilMode": "SENSE",
  "Modality": "MR",
  "NonlinearGradientCorrection": false,
  "PartialFourier": 1,
  "PatientPosition": "HFS",
  "PercentPhaseFOV": 100,
  "PercentSampling": 100,
  "PhaseEncodingDirection": "j-",
  "PhaseEncodingSteps": 64,
  "PhaseResolution": 1,
  "PixelBandwidth": 2230,
  "ProcedureStepDescription": "CBU^Neuroimaging",
  "ProtocolName": "CBU_DWEPI_BOLD210",
  "PulseSequenceDetails": "%SiemensSeq%\\ep2d_bold",
  "ReceiveCoilName": "HeadMatrix",
  "ReconMatrixPE": 64,
  "RepetitionTime": 2,
  "SAR": 0.144967,
  "ScanOptions": "FS",
  "ScanningSequence": "EP",
  "SequenceName": "*epfid2d1_64",
  "SequenceVariant": "SK",
  "SeriesDescription": "CBU_DWEPI_BOLD210",
  "SeriesNumber": 11,
  "ShimSetting": [-7826, -8719, -2019, 790, 7, -29, -65, 87],
  "SliceThickness": 3,
  "SliceTiming": [0, 1.0325, 0.06, 1.095, 0.12, 1.155, 0.1825, 1.215, 0.2425, 1.2775, 0.3025, 1.3375, 0.365, 1.3975, 0.425, 1.46, 0.485, 1.52, 0.5475, 1.58, 0.6075, 1.6425, 0.6675, 1.7025, 0.73, 1.7625, 0.79, 1.825, 0.85, 1.885, 0.9125, 1.945, 0.9725],
  "SoftwareVersions": "syngo MR B15",
  "SpacingBetweenSlices": 3.75,
  "StationName": "MRC35119",
  "TaskName": "faceprocessing",
  "TotalReadoutTime": 0.0321303,
  "TxRefAmp": 326.846,
  "dcmmeta_affine": [
    [-3.0, 0.0, 0.0, 98.03389739990234],
    [0.0, 2.64638090133667, -1.7662949562072754, -44.47935485839844],
    [0.0, 1.4130359888076782, 3.307976245880127, -92.450927734375],
    [0.0, 0.0, 0.0, 1.0]
],
  "dcmmeta_reorient_transform": [
    [0.0, -1.0, 0.0, 63.0],
    [1.0, 0.0, 0.0, 0.0],
    [0.0, 0.0, 1.0, 0.0],
    [0.0, 0.0, 0.0, 1.0]
],
  "dcmmeta_shape": [64, 64, 33, 210],
  "dcmmeta_slice_dim": 2,
  "dcmmeta_version": 0.6,
  "global": {
    "const": {
      "AcquisitionMatrix": [64, 0, 0, 64],
      "AngioFlag": "N",
      "BitsAllocated": 16,
      "BitsStored": 12,
      "Columns": 384,
      "EchoNumbers": 1,
      "EchoTime": 30.0,
      "EchoTrainLength": 1,
      "FlipAngle": 78.0,
      "HighBit": 11,
      "ImageOrientationPatient": [1.0, 0.0, 0.0, 0.0, 0.882127, -0.471012],
      "ImagePositionPatient": [-578.033898, -545.663607, 222.656104],
      "ImageType": [
        "ORIGINAL",
        "PRIMARY",
        "M",
        "ND",
        "MOSAIC"
],
      "ImagedNucleus": "1H",
      "ImagingFrequency": 123.251859,
      "InPlanePhaseEncodingDirection": "COL",
      "MRAcquisitionType": "2D",
      "MagneticFieldStrength": 3.0,
      "Manufacturer": "SIEMENS",
      "ManufacturerModelName": "TrioTim",
      "Modality": "MR",
      "NumberOfAverages": 1.0,
      "NumberOfPhaseEncodingSteps": 64,
      "PercentPhaseFieldOfView": 100.0,
      "PercentSampling": 100.0,
      "PerformedProcedureStepStartTime": "133852.171000",
      "PhotometricInterpretation": "MONOCHROME2",
      "PixelAspectRatio": [1, 1],
      "PixelBandwidth": 2230.0,
      "PixelRepresentation": 0,
      "PixelSpacing": [3.0, 3.0],
      "ProtocolName": "CBU_DWEPI_BOLD210",
      "RepetitionTime": 2000.0,
      "Rows": 384,
      "SAR": 0.144967,
      "SamplesPerPixel": 1,
      "ScanOptions": "FS",
      "ScanningSequence": "EP",
      "SequenceName": "*epfid2d1_64",
      "SequenceVariant": "SK",
      "SeriesDescription": "CBU_DWEPI_BOLD210",
      "SeriesNumber": 11,
      "SeriesTime": "144918.906000",
      "SliceLocation": -60.603111,
      "SliceThickness": 3.0,
      "SmallestImagePixelValue": 0,
      "SoftwareVersions": "syngo MR B15",
      "SpacingBetweenSlices": 3.75,
      "SpecificCharacterSet": "ISO_IR 100",
      "StudyID": "1",
      "StudyTime": "133852.093000",
      "TransmitCoilName": "Body",
      "VariableFlipAngleFlag": "N",
      "WindowCenterWidthExplanation": "Algo1",
      "dBdt": 0.0},
    "slices": {}
  },
  "time": {
    "samples": {
      "AcquisitionNumber": [1, 2, 3, 4, 5, 6, 7, 8, 9, 10, 11, 12, 13, 14, 15, 16, 17, 18, 19, 20, 21, 22, 23, 24, 25, 26, 27, 28, 29, 30, 31, 32, 33, 34, 35, 36, 37, 38, 39, 40, 41, 42, 43, 44, 45, 46, 47, 48, 49, 50, 51, 52, 53, 54, 55, 56, 57, 58, 59, 60, 61, 62, 63, 64, 65, 66, 67, 68, 69, 70, 71, 72, 73, 74, 75, 76, 77, 78, 79, 80, 81, 82, 83, 84, 85, 86, 87, 88, 89, 90, 91, 92, 93, 94, 95, 96, 97, 98, 99, 100, 101, 102, 103, 104, 105, 106, 107, 108, 109, 110, 111, 112, 113, 114, 115, 116, 117, 118, 119, 120, 121, 122, 123, 124, 125, 126, 127, 128, 129, 130, 131, 132, 133, 134, 135, 136, 137, 138, 139, 140, 141, 142, 143, 144, 145, 146, 147, 148, 149, 150, 151, 152, 153, 154, 155, 156, 157, 158, 159, 160, 161, 162, 163, 164, 165, 166, 167, 168, 169, 170, 171, 172, 173, 174, 175, 176, 177, 178, 179, 180, 181, 182, 183, 184, 185, 186, 187, 188, 189, 190, 191, 192, 193, 194, 195, 196, 197, 198, 199, 200, 201, 202, 203, 204, 205, 206, 207, 208, 209, 210],
      "AcquisitionTime": ["144916.165000", "144918.172500", "144920.180000", "144922.187500", "144924.197500", "144926.205000", "144928.212500", "144930.220000", "144932.230000", "144934.237500", "144936.245000", "144938.252500", "144940.260000", "144942.270000", "144944.277500", "144946.285000", "144948.292500", "144950.300000", "144952.310000", "144954.317500", "144956.325000", "144958.332500", "145000.340000", "145002.350000", "145004.357500", "145006.365000", "145008.372500", "145010.382500", "145012.390000", "145014.397500", "145016.405000", "145018.412500", "145020.422500", "145022.430000", "145024.437500", "145026.445000", "145028.452500", "145030.462500", "145032.470000", "145034.477500", "145036.485000", "145038.495000", "145040.502500", "145042.510000", "145044.517500", "145046.525000", "145048.535000", "145050.542500", "145052.550000", "145054.557500", "145056.565000", "145058.575000", "145100.582500", "145102.590000", "145104.597500", "145106.607500", "145108.615000", "145110.622500", "145112.630000", "145114.637500", "145116.647500", "145118.655000", "145120.662500", "145122.670000", "145124.677500", "145126.687500", "145128.695000", "145130.702500", "145132.710000", "145134.717500", "145136.727500", "145138.735000", "145140.742500", "145142.750000", "145144.760000", "145146.767500", "145148.775000", "145150.782500", "145152.790000", "145154.800000", "145156.807500", "145158.815000", "145200.822500", "145202.830000", "145204.840000", "145206.847500", "145208.855000", "145210.862500", "145212.872500", "145214.880000", "145216.887500", "145218.895000", "145220.902500", "145222.912500", "145224.920000", "145226.927500", "145228.935000", "145230.942500", "145232.952500", "145234.960000", "145236.967500", "145238.975000", "145240.985000", "145242.992500", "145245.000000", "145247.007500", "145249.015000", "145251.025000", "145253.032500", "145255.040000", "145257.047500", "145259.055000", "145301.065000", "145303.072500", "145305.080000", "145307.087500", "145309.095000", "145311.105000", "145313.112500", "145315.120000", "145317.127500", "145319.137500", "145321.145000", "145323.152500", "145325.160000", "145327.167500", "145329.177500", "145331.185000", "145333.192500", "145335.200000", "145337.207500", "145339.217500", "145341.225000", "145343.232500", "145345.240000", "145347.250000", "145349.257500", "145351.265000", "145353.272500", "145355.280000", "145357.290000", "145359.297500", "145401.305000", "145403.312500", "145405.320000", "145407.330000", "145409.337500", "145411.345000", "145413.352500", "145415.362500", "145417.370000", "145419.377500", "145421.385000", "145423.392500", "145425.402500", "145427.410000", "145429.417500", "145431.425000", "145433.432500", "145435.442500", "145437.450000", "145439.457500", "145441.465000", "145443.472500", "145445.482500", "145447.490000", "145449.497500", "145451.505000", "145453.515000", "145455.522500", "145457.530000", "145459.537500", "145501.545000", "145503.555000", "145505.562500", "145507.570000", "145509.577500", "145511.585000", "145513.595000", "145515.602500", "145517.610000", "145519.617500", "145521.627500", "145523.635000", "145525.642500", "145527.650000", "145529.657500", "145531.667500", "145533.675000", "145535.682500", "145537.690000", "145539.697500", "145541.707500", "145543.715000", "145545.722500", "145547.730000", "145549.740000", "145551.747500", "145553.755000", "145555.762500", "145557.770000", "145559.780000", "145601.787500", "145603.795000", "145605.802500", "145607.810000", "145609.820000", "145611.827500", "145613.835000", "145615.842500"],
      "ContentTime": ["144918.906000", "144920.890000", "144922.890000", "144924.890000", "144926.890000", "144928.890000", "144930.890000", "144932.890000", "144934.890000", "144936.890000", "144938.890000", "144940.890000", "144943.390000", "144944.890000", "144946.890000", "144948.890000", "144950.890000", "144952.890000", "144954.890000", "144956.890000", "144958.890000", "145000.890000", "145002.890000", "145004.890000", "145006.890000", "145008.890000", "145010.890000", "145012.890000", "145014.890000", "145016.890000", "145018.890000", "145020.890000", "145022.890000", "145024.890000", "145026.890000", "145028.890000", "145030.890000", "145032.890000", "145034.890000", "145036.890000", "145038.890000", "145040.890000", "145042.890000", "145044.890000", "145046.890000", "145048.890000", "145050.890000", "145053.390000", "145054.890000", "145056.890000", "145058.890000", "145100.890000", "145102.890000", "145104.890000", "145106.890000", "145108.890000", "145110.890000", "145112.890000", "145115.390000", "145116.890000", "145118.890000", "145121.390000", "145122.890000", "145124.890000", "145126.890000", "145128.890000", "145130.890000", "145132.890000", "145134.890000", "145136.890000", "145138.890000", "145140.890000", "145142.890000", "145144.890000", "145146.890000", "145148.890000", "145150.890000", "145152.890000", "145154.890000", "145156.890000", "145158.890000", "145200.890000", "145202.890000", "145204.890000", "145206.890000", "145208.890000", "145210.890000", "145212.890000", "145214.890000", "145216.890000", "145218.890000", "145220.890000", "145222.890000", "145224.890000", "145226.890000", "145228.890000", "145230.890000", "145232.890000", "145235.390000", "145236.890000", "145238.890000", "145240.890000", "145242.890000", "145244.890000", "145246.890000", "145248.890000", "145250.890000", "145252.890000", "145254.890000", "145256.890000", "145258.890000", "145300.890000", "145302.890000", "145304.890000", "145306.890000", "145308.890000", "145310.890000", "145312.890000", "145314.890000", "145316.890000", "145318.890000", "145320.890000", "145322.890000", "145324.890000", "145326.890000", "145328.890000", "145330.890000", "145332.890000", "145334.890000", "145336.890000", "145338.890000", "145340.890000", "145342.890000", "145344.890000", "145346.890000", "145348.890000", "145350.890000", "145352.890000", "145354.890000", "145356.890000", "145358.890000", "145400.890000", "145402.890000", "145404.890000", "145406.890000", "145408.890000", "145410.890000", "145412.890000", "145414.890000", "145416.890000", "145418.890000", "145420.890000", "145422.890000", "145424.890000", "145426.890000", "145428.890000", "145430.890000", "145432.890000", "145434.890000", "145436.890000", "145438.890000", "145440.890000", "145442.890000", "145444.890000", "145446.890000", "145448.890000", "145450.890000", "145452.890000", "145454.890000", "145456.890000", "145458.890000", "145501.406000", "145502.890000", "145504.890000", "145506.890000", "145508.890000", "145510.890000", "145512.890000", "145514.890000", "145516.890000", "145518.890000", "145520.890000", "145522.890000", "145524.890000", "145526.890000", "145528.890000", "145530.890000", "145532.890000", "145534.890000", "145536.890000", "145538.890000", "145540.890000", "145542.890000", "145544.890000", "145546.890000", "145548.890000", "145551.390000", "145552.890000", "145554.890000", "145556.890000", "145558.890000", "145600.890000", "145602.890000", "145604.890000", "145607.390000", "145608.890000", "145610.890000", "145612.890000", "145614.890000", "145616.828000"],
      "InstanceCreationTime": ["144918.906000", "144920.890000", "144922.890000", "144924.890000", "144926.890000", "144928.890000", "144930.890000", "144932.890000", "144934.890000", "144936.890000", "144938.890000", "144940.890000", "144943.390000", "144944.890000", "144946.890000", "144948.890000", "144950.890000", "144952.890000", "144954.890000", "144956.890000", "144958.890000", "145000.890000", "145002.890000", "145004.890000", "145006.890000", "145008.890000", "145010.890000", "145012.890000", "145014.890000", "145016.890000", "145018.890000", "145020.890000", "145022.890000", "145024.890000", "145026.890000", "145028.890000", "145030.890000", "145032.890000", "145034.890000", "145036.890000", "145038.890000", "145040.890000", "145042.890000", "145044.890000", "145046.890000", "145048.890000", "145050.890000", "145053.390000", "145054.890000", "145056.890000", "145058.890000", "145100.890000", "145102.890000", "145104.890000", "145106.890000", "145108.890000", "145110.890000", "145112.890000", "145115.390000", "145116.890000", "145118.890000", "145121.390000", "145122.890000", "145124.890000", "145126.890000", "145128.890000", "145130.890000", "145132.890000", "145134.890000", "145136.890000", "145138.890000", "145140.890000", "145142.890000", "145144.890000", "145146.890000", "145148.890000", "145150.890000", "145152.890000", "145154.890000", "145156.890000", "145158.890000", "145200.890000", "145202.890000", "145204.890000", "145206.890000", "145208.890000", "145210.890000", "145212.890000", "145214.890000", "145216.890000", "145218.890000", "145220.890000", "145222.890000", "145224.890000", "145226.890000", "145228.890000", "145230.890000", "145232.890000", "145235.390000", "145236.890000", "145238.890000", "145240.890000", "145242.890000", "145244.890000", "145246.890000", "145248.890000", "145250.890000", "145252.890000", "145254.890000", "145256.890000", "145258.890000", "145300.890000", "145302.890000", "145304.890000", "145306.890000", "145308.890000", "145310.890000", "145312.890000", "145314.890000", "145316.890000", "145318.890000", "145320.890000", "145322.890000", "145324.890000", "145326.890000", "145328.890000", "145330.890000", "145332.890000", "145334.890000", "145336.890000", "145338.890000", "145340.890000", "145342.890000", "145344.890000", "145346.890000", "145348.890000", "145350.890000", "145352.890000", "145354.890000", "145356.890000", "145358.890000", "145400.890000", "145402.890000", "145404.890000", "145406.890000", "145408.890000", "145410.890000", "145412.890000", "145414.890000", "145416.890000", "145418.890000", "145420.890000", "145422.890000", "145424.890000", "145426.890000", "145428.890000", "145430.890000", "145432.890000", "145434.890000", "145436.890000", "145438.890000", "145440.890000", "145442.890000", "145444.890000", "145446.890000", "145448.890000", "145450.890000", "145452.890000", "145454.890000", "145456.890000", "145458.890000", "145501.406000", "145502.890000", "145504.890000", "145506.890000", "145508.890000", "145510.890000", "145512.890000", "145514.890000", "145516.890000", "145518.890000", "145520.890000", "145522.890000", "145524.890000", "145526.890000", "145528.890000", "145530.890000", "145532.890000", "145534.890000", "145536.890000", "145538.890000", "145540.890000", "145542.890000", "145544.890000", "145546.890000", "145548.890000", "145551.390000", "145552.890000", "145554.890000", "145556.890000", "145558.890000", "145600.890000", "145602.890000", "145604.890000", "145607.390000", "145608.890000", "145610.890000", "145612.890000", "145614.890000", "145616.828000"],
      "InstanceNumber": [1, 2, 3, 4, 5, 6, 7, 8, 9, 10, 11, 12, 13, 14, 15, 16, 17, 18, 19, 20, 21, 22, 23, 24, 25, 26, 27, 28, 29, 30, 31, 32, 33, 34, 35, 36, 37, 38, 39, 40, 41, 42, 43, 44, 45, 46, 47, 48, 49, 50, 51, 52, 53, 54, 55, 56, 57, 58, 59, 60, 61, 62, 63, 64, 65, 66, 67, 68, 69, 70, 71, 72, 73, 74, 75, 76, 77, 78, 79, 80, 81, 82, 83, 84, 85, 86, 87, 88, 89, 90, 91, 92, 93, 94, 95, 96, 97, 98, 99, 100, 101, 102, 103, 104, 105, 106, 107, 108, 109, 110, 111, 112, 113, 114, 115, 116, 117, 118, 119, 120, 121, 122, 123, 124, 125, 126, 127, 128, 129, 130, 131, 132, 133, 134, 135, 136, 137, 138, 139, 140, 141, 142, 143, 144, 145, 146, 147, 148, 149, 150, 151, 152, 153, 154, 155, 156, 157, 158, 159, 160, 161, 162, 163, 164, 165, 166, 167, 168, 169, 170, 171, 172, 173, 174, 175, 176, 177, 178, 179, 180, 181, 182, 183, 184, 185, 186, 187, 188, 189, 190, 191, 192, 193, 194, 195, 196, 197, 198, 199, 200, 201, 202, 203, 204, 205, 206, 207, 208, 209, 210],
      "LargestImagePixelValue": [2109, 1804, 1791, 1773, 1803, 1795, 1808, 1783, 1802, 1763, 1757, 1794, 1783, 1767, 1819, 1781, 1797, 1759, 1732, 1764, 1777, 1816, 1852, 1678, 1683, 1682, 1702, 1674, 1691, 1718, 1718, 1723, 1701, 1700, 1747, 1692, 1703, 1682, 1672, 1680, 1692, 1697, 1780, 1772, 1724, 1735, 1727, 1758, 1706, 1737, 1705, 1724, 1703, 1712, 1708, 1725, 1702, 1700, 1714, 1703, 1692, 1687, 1725, 1701, 1716, 1694, 1713, 1725, 1692, 1728, 1684, 1693, 1702, 1684, 1692, 1688, 1697, 1690, 1673, 1682, 1683, 1697, 1693, 1681, 1718, 1677, 1687, 1689, 1690, 1701, 1671, 1705, 1690, 1685, 1672, 1685, 1681, 1696, 1690, 1687, 1671, 1687, 1701, 1896, 1840, 1762, 1745, 1766, 1888, 1931, 1724, 1715, 1738, 1742, 1735, 1736, 1728, 1737, 1728, 1722, 1725, 1721, 1714, 1698, 1710, 1718, 1709, 1692, 1696, 1700, 1685, 1695, 1694, 1714, 1687, 1691, 1689, 1687, 1695, 1706, 1702, 1697, 1693, 1687, 1690, 1704, 1686, 1747, 1695, 1690, 1724, 1695, 1732, 1704, 1718, 1713, 1705, 1682, 1690, 1675, 1679, 1681, 1676, 1689, 1688, 1686, 1673, 1684, 1671, 1683, 1685, 1688, 1675, 1679, 1699, 1688, 1688, 1683, 1678, 1704, 1779, 1680, 1689, 1687, 1711, 1677, 1705, 1697, 1739, 1720, 1712, 1706, 1711, 1689, 1694, 1709, 1688, 1691, 1690, 1687, 1686, 1700, 1690, 1701, 1715, 1701, 1787, 1710, 1691, 1697],
      "WindowCenter": [757.0, 745.0, 745.0, 745.0, 747.0, 747.0, 749.0, 747.0, 747.0, 746.0, 747.0, 748.0, 746.0, 746.0, 747.0, 745.0, 744.0, 742.0, 743.0, 745.0, 745.0, 749.0, 751.0, 738.0, 740.0, 741.0, 741.0, 741.0, 743.0, 744.0, 744.0, 743.0, 742.0, 742.0, 742.0, 743.0, 743.0, 743.0, 743.0, 742.0, 743.0, 742.0, 745.0, 746.0, 747.0, 745.0, 742.0, 742.0, 742.0, 744.0, 744.0, 745.0, 744.0, 744.0, 744.0, 743.0, 744.0, 744.0, 744.0, 744.0, 745.0, 744.0, 745.0, 744.0, 744.0, 743.0, 743.0, 745.0, 743.0, 744.0, 743.0, 744.0, 745.0, 744.0, 744.0, 744.0, 744.0, 745.0, 744.0, 745.0, 744.0, 745.0, 744.0, 744.0, 744.0, 744.0, 744.0, 744.0, 744.0, 744.0, 744.0, 745.0, 744.0, 744.0, 745.0, 745.0, 744.0, 745.0, 744.0, 745.0, 743.0, 743.0, 745.0, 750.0, 750.0, 745.0, 746.0, 745.0, 742.0, 740.0, 737.0, 738.0, 740.0, 741.0, 743.0, 744.0, 744.0, 744.0, 744.0, 744.0, 743.0, 744.0, 744.0, 745.0, 745.0, 744.0, 743.0, 743.0, 743.0, 743.0, 743.0, 745.0, 745.0, 745.0, 744.0, 745.0, 744.0, 745.0, 745.0, 745.0, 745.0, 745.0, 744.0, 744.0, 744.0, 745.0, 744.0, 745.0, 743.0, 743.0, 745.0, 744.0, 746.0, 744.0, 745.0, 744.0, 743.0, 743.0, 744.0, 744.0, 744.0, 744.0, 743.0, 746.0, 744.0, 744.0, 744.0, 744.0, 743.0, 743.0, 743.0, 743.0, 743.0, 742.0, 742.0, 743.0, 743.0, 744.0, 744.0, 743.0, 747.0, 744.0, 744.0, 744.0, 742.0, 742.0, 742.0, 741.0, 742.0, 744.0, 745.0, 743.0, 742.0, 742.0, 743.0, 743.0, 743.0, 743.0, 743.0, 744.0, 744.0, 744.0, 743.0, 745.0, 745.0, 745.0, 747.0, 744.0, 744.0, 745.0],
      "WindowWidth": [1596.0, 1565.0, 1564.0, 1566.0, 1570.0, 1569.0, 1574.0, 1570.0, 1571.0, 1568.0, 1570.0, 1571.0, 1568.0, 1568.0, 1569.0, 1564.0, 1563.0, 1558.0, 1561.0, 1566.0, 1565.0, 1575.0, 1581.0, 1550.0, 1554.0, 1557.0, 1558.0, 1556.0, 1560.0, 1563.0, 1563.0, 1561.0, 1559.0, 1559.0, 1560.0, 1562.0, 1561.0, 1561.0, 1562.0, 1560.0, 1561.0, 1559.0, 1567.0, 1568.0, 1570.0, 1565.0, 1560.0, 1560.0, 1558.0, 1564.0, 1564.0, 1566.0, 1565.0, 1563.0, 1563.0, 1562.0, 1563.0, 1562.0, 1564.0, 1563.0, 1566.0, 1563.0, 1567.0, 1565.0, 1564.0, 1560.0, 1561.0, 1566.0, 1562.0, 1563.0, 1561.0, 1564.0, 1565.0, 1565.0, 1564.0, 1564.0, 1565.0, 1565.0, 1565.0, 1566.0, 1564.0, 1565.0, 1563.0, 1563.0, 1563.0, 1564.0, 1564.0, 1563.0, 1563.0, 1563.0, 1563.0, 1566.0, 1564.0, 1565.0, 1565.0, 1565.0, 1564.0, 1565.0, 1564.0, 1565.0, 1562.0, 1562.0, 1566.0, 1579.0, 1578.0, 1566.0, 1568.0, 1564.0, 1558.0, 1552.0, 1547.0, 1550.0, 1554.0, 1556.0, 1561.0, 1562.0, 1563.0, 1563.0, 1563.0, 1562.0, 1562.0, 1564.0, 1564.0, 1566.0, 1564.0, 1564.0, 1562.0, 1561.0, 1560.0, 1560.0, 1562.0, 1567.0, 1565.0, 1567.0, 1564.0, 1566.0, 1565.0, 1565.0, 1565.0, 1566.0, 1567.0, 1566.0, 1564.0, 1564.0, 1564.0, 1567.0, 1563.0, 1566.0, 1562.0, 1561.0, 1565.0, 1564.0, 1567.0, 1565.0, 1565.0, 1563.0, 1562.0, 1561.0, 1563.0, 1563.0, 1563.0, 1563.0, 1563.0, 1568.0, 1565.0, 1565.0, 1563.0, 1564.0, 1562.0, 1562.0, 1562.0, 1562.0, 1560.0, 1560.0, 1560.0, 1562.0, 1562.0, 1563.0, 1563.0, 1563.0, 1572.0, 1562.0, 1562.0, 1563.0, 1558.0, 1559.0, 1558.0, 1556.0, 1558.0, 1565.0, 1566.0, 1561.0, 1560.0, 1560.0, 1561.0, 1562.0, 1560.0, 1561.0, 1562.0, 1563.0, 1563.0, 1563.0, 1562.0, 1565.0, 1567.0, 1567.0, 1572.0, 1564.0, 1564.0, 1564.0]
    },
    "slices": {}
  }
}