{
  "AcquisitionMatrixPE": 64,
  "AcquisitionNumber": 1,
  "AcquisitionTime": "17:40:25.910000",
  "BandwidthPerPixelPhaseEncode": 30.637,
  "BaseResolution": 64,
  "BidsGuess": [
    "func",
    "_acq-epfid2_dir-AP_run-4_bold"
],
  "CoilCombinationMethod": "Sum of Squares",
  "CoilString": "C:HEA;HEP",
  "ConversionSoftware": "dcm2niix",
  "ConversionSoftwareVersion": "v1.0.20240202",
  "DerivedVendorReportedEchoSpacing": 0.000510004,
  "DeviceSerialNumber": "35119",
  "DwellTime": 3.5e-06,
  "EchoTime": 0.03,
  "EffectiveEchoSpacing": 0.000510004,
  "FlipAngle": 78,
  "HeudiconvVersion": "1.1.6",
  "ImageComments": "V",
  "ImageOrientationPatientDICOM": [0.999864, 0.005398, 0.015583, 0, 0.94491, -0.32733],
  "ImageOrientationText": "Tra>Cor(-19.1)>Sag(0.9)",
  "ImageType": [
    "ORIGINAL",
    "PRIMARY",
    "M",
    "ND",
    "MOSAIC"
],
  "ImagingFrequency": 123.251869,
  "InPlanePhaseEncodingDirectionDICOM": "COL",
  "InstitutionAddress": "Chaucer Road  15,Cambridge,UK,GB,CB2 2EF",
  "InstitutionName": "MRC-CBU",
  "MRAcquisitionType": "2D",
  "MagneticFieldStrength": 3,
  "Manufacturer": "Siemens",
  "ManufacturersModelName": "TrioTim",
  "MatrixCoilMode": "SENSE",
  "Modality": "MR",
  "NonlinearGradientCorrection": false,
  "PartialFourier": 1,
  "PatientPosition": "HFS",
  "PercentPhaseFOV": 100,
  "PercentSampling": 100,
  "PhaseEncodingDirection": "j-",
  "PhaseEncodingSteps": 64,
  "PhaseResolution": 1,
  "PixelBandwidth": 2230,
  "ProcedureStepDescription": "CBU^Neuroimaging",
  "ProtocolName": "CBU_DWEPI_BOLD210",
  "PulseSequenceDetails": "%SiemensSeq%\\ep2d_bold",
  "ReceiveCoilName": "HeadMatrix",
  "ReconMatrixPE": 64,
  "RepetitionTime": 2,
  "SAR": 0.114176,
  "ScanOptions": "FS",
  "ScanningSequence": "EP",
  "SequenceName": "*epfid2d1_64",
  "SequenceVariant": "SK",
  "SeriesDescription": "CBU_DWEPI_BOLD210",
  "SeriesNumber": 4,
  "ShimSetting": [-7786, -8813, -2077, 926, 188, 144, -98, -53],
  "SliceThickness": 3,
  "SliceTiming": [0, 1.035, 0.06, 1.095, 0.1225, 1.155, 0.1825, 1.2175, 0.2425, 1.2775, 0.305, 1.3375, 0.365, 1.4, 0.425, 1.46, 0.4875, 1.52, 0.5475, 1.5825, 0.6075, 1.6425, 0.67, 1.7025, 0.73, 1.765, 0.79, 1.825, 0.8525, 1.885, 0.9125, 1.9475, 0.9725],
  "SoftwareVersions": "syngo MR B15",
  "SpacingBetweenSlices": 3.75,
  "StationName": "MRC35119",
  "TaskName": "faceprocessing",
  "TotalReadoutTime": 0.0321303,
  "TxRefAmp": 295.172,
  "dcmmeta_affine": [
    [-2.9995920658111572, 0.0, 0.06184297427535057, 96.66275024414062],
    [-0.016194000840187073, 2.8347299098968506, -1.2273205518722534, -59.0399284362793],
    [0.04674899950623512, 0.9819899797439575, 3.5429306030273438, -68.84608459472656],
    [0.0, 0.0, 0.0, 1.0]
],
  "dcmmeta_reorient_transform": [
    [0.0, -1.0, 0.0, 63.0],
    [1.0, 0.0, 0.0, 0.0],
    [0.0, 0.0, 1.0, 0.0],
    [0.0, 0.0, 0.0, 1.0]
],
  "dcmmeta_shape": [64, 64, 33, 210],
  "dcmmeta_slice_dim": 2,
  "dcmmeta_version": 0.6,
  "global": {
    "const": {
      "AcquisitionMatrix": [64, 0, 0, 64],
      "AngioFlag": "N",
      "BitsAllocated": 16,
      "BitsStored": 12,
      "Columns": 384,
      "EchoNumbers": 1,
      "EchoTime": 30.0,
      "EchoTrainLength": 1,
      "FlipAngle": 78.0,
      "HighBit": 11,
      "ImageOrientationPatient": [0.999864, 0.005398, 0.015583, -0.0, 0.94491, -0.32733],
      "ImagePositionPatient": [-576.597473, -575.6959, 142.657842],
      "ImageType": [
        "ORIGINAL",
        "PRIMARY",
        "M",
        "ND",
        "MOSAIC"
],
      "ImagedNucleus": "1H",
      "ImagingFrequency": 123.251869,
      "InPlanePhaseEncodingDirection": "COL",
      "MRAcquisitionType": "2D",
      "MagneticFieldStrength": 3.0,
      "Manufacturer": "SIEMENS",
      "ManufacturerModelName": "TrioTim",
      "Modality": "MR",
      "NumberOfAverages": 1.0,
      "NumberOfPhaseEncodingSteps": 64,
      "PercentPhaseFieldOfView": 100.0,
      "PercentSampling": 100.0,
      "PerformedProcedureStepStartTime": "172442.656000",
      "PhotometricInterpretation": "MONOCHROME2",
      "PixelAspectRatio": [1, 1],
      "PixelBandwidth": 2230.0,
      "PixelRepresentation": 0,
      "PixelSpacing": [3.0, 3.0],
      "ProtocolName": "CBU_DWEPI_BOLD210",
      "RepetitionTime": 2000.0,
      "Rows": 384,
      "SAR": 0.114176,
      "SamplesPerPixel": 1,
      "ScanOptions": "FS",
      "ScanningSequence": "EP",
      "SequenceName": "*epfid2d1_64",
      "SequenceVariant": "SK",
      "SeriesDescription": "CBU_DWEPI_BOLD210",
      "SeriesNumber": 4,
      "SeriesTime": "174029.484000",
      "SliceLocation": -44.127353,
      "SliceThickness": 3.0,
      "SmallestImagePixelValue": 0,
      "SoftwareVersions": "syngo MR B15",
      "SpacingBetweenSlices": 3.75,
      "SpecificCharacterSet": "ISO_IR 100",
      "StudyID": "1",
      "StudyTime": "172442.609000",
      "TransmitCoilName": "Body",
      "VariableFlipAngleFlag": "N",
      "WindowCenterWidthExplanation": "Algo1",
      "dBdt": 0.0},
    "slices": {}
  },
  "time": {
    "samples": {
      "AcquisitionNumber": [1, 2, 3, 4, 5, 6, 7, 8, 9, 10, 11, 12, 13, 14, 15, 16, 17, 18, 19, 20, 21, 22, 23, 24, 25, 26, 27, 28, 29, 30, 31, 32, 33, 34, 35, 36, 37, 38, 39, 40, 41, 42, 43, 44, 45, 46, 47, 48, 49, 50, 51, 52, 53, 54, 55, 56, 57, 58, 59, 60, 61, 62, 63, 64, 65, 66, 67, 68, 69, 70, 71, 72, 73, 74, 75, 76, 77, 78, 79, 80, 81, 82, 83, 84, 85, 86, 87, 88, 89, 90, 91, 92, 93, 94, 95, 96, 97, 98, 99, 100, 101, 102, 103, 104, 105, 106, 107, 108, 109, 110, 111, 112, 113, 114, 115, 116, 117, 118, 119, 120, 121, 122, 123, 124, 125, 126, 127, 128, 129, 130, 131, 132, 133, 134, 135, 136, 137, 138, 139, 140, 141, 142, 143, 144, 145, 146, 147, 148, 149, 150, 151, 152, 153, 154, 155, 156, 157, 158, 159, 160, 161, 162, 163, 164, 165, 166, 167, 168, 169, 170, 171, 172, 173, 174, 175, 176, 177, 178, 179, 180, 181, 182, 183, 184, 185, 186, 187, 188, 189, 190, 191, 192, 193, 194, 195, 196, 197, 198, 199, 200, 201, 202, 203, 204, 205, 206, 207, 208, 209, 210],
      "AcquisitionTime": ["174025.910000", "174027.917500", "174029.925000", "174031.935000", "174033.942500", "174035.950000", "174037.957500", "174039.967500", "174041.975000", "174043.982500", "174045.990000", "174047.997500", "174050.007500", "174052.015000", "174054.022500", "174056.030000", "174058.037500", "174100.047500", "174102.055000", "174104.062500", "174106.070000", "174108.080000", "174110.087500", "174112.095000", "174114.102500", "174116.110000", "174118.120000", "174120.127500", "174122.135000", "174124.142500", "174126.150000", "174128.160000", "174130.167500", "174132.175000", "174134.182500", "174136.192500", "174138.200000", "174140.207500", "174142.215000", "174144.222500", "174146.232500", "174148.240000", "174150.247500", "174152.255000", "174154.262500", "174156.272500", "174158.280000", "174200.287500", "174202.295000", "174204.302500", "174206.312500", "174208.320000", "174210.327500", "174212.335000", "174214.345000", "174216.352500", "174218.360000", "174220.367500", "174222.375000", "174224.385000", "174226.392500", "174228.400000", "174230.407500", "174232.415000", "174234.425000", "174236.432500", "174238.440000", "174240.447500", "174242.457500", "174244.465000", "174246.472500", "174248.480000", "174250.487500", "174252.497500", "174254.505000", "174256.512500", "174258.520000", "174300.527500", "174302.537500", "174304.545000", "174306.552500", "174308.560000", "174310.570000", "174312.577500", "174314.585000", "174316.592500", "174318.600000", "174320.610000", "174322.617500", "174324.625000", "174326.632500", "174328.640000", "174330.650000", "174332.657500", "174334.665000", "174336.672500", "174338.680000", "174340.690000", "174342.697500", "174344.705000", "174346.712500", "174348.722500", "174350.730000", "174352.737500", "174354.745000", "174356.752500", "174358.762500", "174400.770000", "174402.777500", "174404.785000", "174406.792500", "174408.802500", "174410.810000", "174412.817500", "174414.825000", "174416.835000", "174418.842500", "174420.850000", "174422.857500", "174424.865000", "174426.875000", "174428.882500", "174430.890000", "174432.897500", "174434.905000", "174436.915000", "174438.922500", "174440.930000", "174442.937500", "174444.947500", "174446.955000", "174448.962500", "174450.970000", "174452.977500", "174454.987500", "174456.995000", "174459.002500", "174501.010000", "174503.017500", "174505.027500", "174507.035000", "174509.042500", "174511.050000", "174513.057500", "174515.067500", "174517.075000", "174519.082500", "174521.090000", "174523.100000", "174525.107500", "174527.115000", "174529.122500", "174531.130000", "174533.140000", "174535.147500", "174537.155000", "174539.162500", "174541.170000", "174543.180000", "174545.187500", "174547.195000", "174549.202500", "174551.212500", "174553.220000", "174555.227500", "174557.235000", "174559.242500", "174601.252500", "174603.260000", "174605.267500", "174607.275000", "174609.282500", "174611.292500", "174613.300000", "174615.307500", "174617.315000", "174619.325000", "174621.332500", "174623.340000", "174625.347500", "174627.355000", "174629.365000", "174631.372500", "174633.380000", "174635.387500", "174637.395000", "174639.405000", "174641.412500", "174643.420000", "174645.427500", "174647.435000", "174649.445000", "174651.452500", "174653.460000", "174655.467500", "174657.477500", "174659.485000", "174701.492500", "174703.500000", "174705.507500", "174707.517500", "174709.525000", "174711.532500", "174713.540000", "174715.547500", "174717.557500", "174719.565000", "174721.572500", "174723.580000", "174725.590000"],
      "ContentTime": ["174029.500000", "174031.484000", "174033.484000", "174035.484000", "174037.484000", "174039.484000", "174041.484000", "174043.484000", "174045.484000", "174047.484000", "174049.484000", "174051.484000", "174053.484000", "174055.484000", "174057.484000", "174059.484000", "174101.484000", "174103.484000", "174105.484000", "174107.484000", "174109.484000", "174111.484000", "174113.484000", "174115.484000", "174117.484000", "174119.484000", "174121.484000", "174123.484000", "174125.484000", "174127.484000", "174129.484000", "174131.484000", "174133.484000", "174135.484000", "174137.484000", "174139.484000", "174141.484000", "174143.484000", "174145.484000", "174147.484000", "174149.484000", "174151.484000", "174153.484000", "174155.484000", "174157.484000", "174159.484000", "174201.484000", "174203.484000", "174205.484000", "174207.484000", "174209.484000", "174211.484000", "174213.484000", "174215.484000", "174217.484000", "174219.484000", "174221.484000", "174223.484000", "174225.484000", "174227.484000", "174229.484000", "174231.484000", "174233.484000", "174235.484000", "174237.484000", "174239.484000", "174241.484000", "174243.484000", "174245.484000", "174247.484000", "174249.484000", "174251.484000", "174253.484000", "174255.484000", "174257.484000", "174259.484000", "174301.484000", "174303.484000", "174305.484000", "174307.484000", "174309.484000", "174311.484000", "174313.484000", "174315.484000", "174317.484000", "174319.484000", "174321.484000", "174323.484000", "174325.484000", "174327.484000", "174329.484000", "174331.484000", "174333.484000", "174335.484000", "174337.484000", "174339.484000", "174341.484000", "174343.484000", "174345.484000", "174347.484000", "174349.484000", "174351.484000", "174353.484000", "174355.484000", "174357.484000", "174359.484000", "174401.484000", "174403.484000", "174405.484000", "174407.484000", "174409.484000", "174411.484000", "174413.484000", "174415.484000", "174417.484000", "174419.484000", "174421.484000", "174423.484000", "174425.484000", "174427.484000", "174429.484000", "174431.484000", "174433.484000", "174435.484000", "174437.484000", "174439.484000", "174441.484000", "174443.484000", "174445.484000", "174447.484000", "174449.484000", "174451.484000", "174453.484000", "174455.484000", "174457.484000", "174459.484000", "174501.484000", "174503.484000", "174505.484000", "174507.484000", "174509.484000", "174511.484000", "174513.484000", "174515.484000", "174517.484000", "174519.484000", "174521.484000", "174523.484000", "174525.484000", "174527.484000", "174529.484000", "174531.484000", "174533.484000", "174535.484000", "174537.484000", "174539.484000", "174541.484000", "174543.484000", "174545.484000", "174547.484000", "174549.484000", "174551.484000", "174553.484000", "174555.484000", "174557.484000", "174559.484000", "174601.484000", "174603.484000", "174605.484000", "174607.484000", "174609.484000", "174611.484000", "174613.484000", "174615.484000", "174617.484000", "174619.484000", "174621.484000", "174623.484000", "174625.484000", "174627.484000", "174629.484000", "174631.484000", "174633.484000", "174635.484000", "174637.484000", "174639.484000", "174641.484000", "174643.484000", "174645.484000", "174647.484000", "174649.484000", "174651.484000", "174653.484000", "174655.484000", "174657.484000", "174659.484000", "174701.484000", "174703.484000", "174705.484000", "174707.484000", "174709.484000", "174711.484000", "174713.484000", "174715.484000", "174717.484000", "174719.484000", "174721.484000", "174723.484000", "174725.484000", "174727.250000"],
      "InstanceCreationTime": ["174029.500000", "174031.484000", "174033.484000", "174035.484000", "174037.484000", "174039.484000", "174041.484000", "174043.484000", "174045.484000", "174047.484000", "174049.484000", "174051.484000", "174053.484000", "174055.484000", "174057.484000", "174059.484000", "174101.484000", "174103.484000", "174105.484000", "174107.484000", "174109.484000", "174111.484000", "174113.484000", "174115.484000", "174117.484000", "174119.484000", "174121.484000", "174123.484000", "174125.484000", "174127.484000", "174129.484000", "174131.484000", "174133.484000", "174135.484000", "174137.484000", "174139.484000", "174141.484000", "174143.484000", "174145.484000", "174147.484000", "174149.484000", "174151.484000", "174153.484000", "174155.484000", "174157.484000", "174159.484000", "174201.484000", "174203.484000", "174205.484000", "174207.484000", "174209.484000", "174211.484000", "174213.484000", "174215.484000", "174217.484000", "174219.484000", "174221.484000", "174223.484000", "174225.484000", "174227.484000", "174229.484000", "174231.484000", "174233.484000", "174235.484000", "174237.484000", "174239.484000", "174241.484000", "174243.484000", "174245.484000", "174247.484000", "174249.484000", "174251.484000", "174253.484000", "174255.484000", "174257.484000", "174259.484000", "174301.484000", "174303.484000", "174305.484000", "174307.484000", "174309.484000", "174311.484000", "174313.484000", "174315.484000", "174317.484000", "174319.484000", "174321.484000", "174323.484000", "174325.484000", "174327.484000", "174329.484000", "174331.484000", "174333.484000", "174335.484000", "174337.484000", "174339.484000", "174341.484000", "174343.484000", "174345.484000", "174347.484000", "174349.484000", "174351.484000", "174353.484000", "174355.484000", "174357.484000", "174359.484000", "174401.484000", "174403.484000", "174405.484000", "174407.484000", "174409.484000", "174411.484000", "174413.484000", "174415.484000", "174417.484000", "174419.484000", "174421.484000", "174423.484000", "174425.484000", "174427.484000", "174429.484000", "174431.484000", "174433.484000", "174435.484000", "174437.484000", "174439.484000", "174441.484000", "174443.484000", "174445.484000", "174447.484000", "174449.484000", "174451.484000", "174453.484000", "174455.484000", "174457.484000", "174459.484000", "174501.484000", "174503.484000", "174505.484000", "174507.484000", "174509.484000", "174511.484000", "174513.484000", "174515.484000", "174517.484000", "174519.484000", "174521.484000", "174523.484000", "174525.484000", "174527.484000", "174529.484000", "174531.484000", "174533.484000", "174535.484000", "174537.484000", "174539.484000", "174541.484000", "174543.484000", "174545.484000", "174547.484000", "174549.484000", "174551.484000", "174553.484000", "174555.484000", "174557.484000", "174559.484000", "174601.484000", "174603.484000", "174605.484000", "174607.484000", "174609.484000", "174611.484000", "174613.484000", "174615.484000", "174617.484000", "174619.484000", "174621.484000", "174623.484000", "174625.484000", "174627.484000", "174629.484000", "174631.484000", "174633.484000", "174635.484000", "174637.484000", "174639.484000", "174641.484000", "174643.484000", "174645.484000", "174647.484000", "174649.484000", "174651.484000", "174653.484000", "174655.484000", "174657.484000", "174659.484000", "174701.484000", "174703.484000", "174705.484000", "174707.484000", "174709.484000", "174711.484000", "174713.484000", "174715.484000", "174717.484000", "174719.484000", "174721.484000", "174723.484000", "174725.484000", "174727.250000"],
      "InstanceNumber": [1, 2, 3, 4, 5, 6, 7, 8, 9, 10, 11, 12, 13, 14, 15, 16, 17, 18, 19, 20, 21, 22, 23, 24, 25, 26, 27, 28, 29, 30, 31, 32, 33, 34, 35, 36, 37, 38, 39, 40, 41, 42, 43, 44, 45, 46, 47, 48, 49, 50, 51, 52, 53, 54, 55, 56, 57, 58, 59, 60, 61, 62, 63, 64, 65, 66, 67, 68, 69, 70, 71, 72, 73, 74, 75, 76, 77, 78, 79, 80, 81, 82, 83, 84, 85, 86, 87, 88, 89, 90, 91, 92, 93, 94, 95, 96, 97, 98, 99, 100, 101, 102, 103, 104, 105, 106, 107, 108, 109, 110, 111, 112, 113, 114, 115, 116, 117, 118, 119, 120, 121, 122, 123, 124, 125, 126, 127, 128, 129, 130, 131, 132, 133, 134, 135, 136, 137, 138, 139, 140, 141, 142, 143, 144, 145, 146, 147, 148, 149, 150, 151, 152, 153, 154, 155, 156, 157, 158, 159, 160, 161, 162, 163, 164, 165, 166, 167, 168, 169, 170, 171, 172, 173, 174, 175, 176, 177, 178, 179, 180, 181, 182, 183, 184, 185, 186, 187, 188, 189, 190, 191, 192, 193, 194, 195, 196, 197, 198, 199, 200, 201, 202, 203, 204, 205, 206, 207, 208, 209, 210],
      "LargestImagePixelValue": [1928, 1807, 1723, 1773, 1700, 1752, 1946, 1705, 1697, 2007, 1998, 1680, 1712, 1726, 1850, 1727, 1697, 2011, 2010, 1744, 1690, 1709, 1855, 1903, 1679, 1704, 1705, 1870, 1736, 1750, 1700, 1720, 1974, 1695, 1695, 1709, 1912, 1713, 1695, 1951, 1694, 1706, 1701, 1697, 1684, 1706, 1859, 1683, 1704, 1754, 1695, 1697, 1721, 1901, 1703, 1731, 1778, 1697, 1718, 1695, 1695, 1706, 1690, 1691, 1639, 1675, 1823, 1840, 1751, 1661, 1684, 1772, 1700, 1757, 1669, 2013, 1795, 1700, 1687, 1696, 1702, 1687, 1681, 1683, 1682, 1795, 1748, 1874, 1658, 1681, 1818, 1687, 1694, 1766, 1702, 1685, 1718, 1701, 1987, 1671, 1687, 1712, 1972, 1677, 1696, 1702, 1683, 1692, 1701, 2055, 1682, 1705, 1802, 1693, 1683, 1716, 1809, 1694, 1927, 2089, 1882, 1902, 2237, 2218, 2110, 2189, 1668, 1805, 2012, 1683, 1874, 2161, 1649, 1939, 1810, 1664, 1967, 1724, 1963, 1815, 1723, 1997, 1677, 2186, 1847, 1670, 2105, 1671, 1852, 1711, 1796, 2079, 1657, 1989, 1667, 1985, 2253, 1666, 1971, 1707, 1979, 1680, 1831, 1679, 1972, 1889, 1691, 1992, 1680, 2071, 1692, 1784, 2128, 1677, 1729, 2039, 1673, 1919, 1710, 1780, 1980, 1672, 2135, 2040, 1688, 1777, 1731, 1660, 1981, 1669, 1756, 1725, 2208, 1704, 1898, 2089, 1701, 1776, 1836, 2073, 1695, 1975, 2067, 1707, 1827, 1937, 2099, 1756, 1781, 1834],
      "WindowCenter": [722.0, 717.0, 716.0, 723.0, 716.0, 717.0, 717.0, 715.0, 715.0, 716.0, 716.0, 715.0, 716.0, 716.0, 718.0, 717.0, 717.0, 717.0, 717.0, 716.0, 716.0, 718.0, 718.0, 717.0, 717.0, 718.0, 717.0, 718.0, 716.0, 716.0, 717.0, 718.0, 718.0, 717.0, 717.0, 717.0, 719.0, 718.0, 718.0, 719.0, 717.0, 716.0, 717.0, 717.0, 717.0, 717.0, 717.0, 717.0, 718.0, 718.0, 718.0, 718.0, 718.0, 718.0, 716.0, 718.0, 718.0, 717.0, 717.0, 716.0, 716.0, 717.0, 718.0, 717.0, 716.0, 716.0, 718.0, 717.0, 717.0, 717.0, 718.0, 720.0, 720.0, 720.0, 718.0, 718.0, 717.0, 717.0, 718.0, 719.0, 718.0, 717.0, 718.0, 718.0, 718.0, 717.0, 717.0, 718.0, 718.0, 718.0, 718.0, 717.0, 718.0, 718.0, 718.0, 719.0, 720.0, 719.0, 719.0, 717.0, 718.0, 719.0, 720.0, 717.0, 718.0, 718.0, 718.0, 718.0, 718.0, 720.0, 717.0, 717.0, 718.0, 717.0, 717.0, 720.0, 728.0, 723.0, 719.0, 721.0, 720.0, 718.0, 718.0, 717.0, 717.0, 718.0, 716.0, 716.0, 718.0, 719.0, 720.0, 721.0, 718.0, 721.0, 721.0, 720.0, 722.0, 720.0, 721.0, 721.0, 721.0, 722.0, 720.0, 722.0, 720.0, 719.0, 723.0, 721.0, 722.0, 721.0, 722.0, 723.0, 720.0, 722.0, 721.0, 723.0, 723.0, 720.0, 723.0, 721.0, 722.0, 720.0, 721.0, 720.0, 721.0, 720.0, 720.0, 722.0, 720.0, 722.0, 720.0, 722.0, 722.0, 719.0, 720.0, 722.0, 720.0, 722.0, 721.0, 721.0, 722.0, 720.0, 722.0, 720.0, 719.0, 720.0, 720.0, 719.0, 722.0, 720.0, 724.0, 726.0, 724.0, 720.0, 721.0, 722.0, 720.0, 720.0, 720.0, 722.0, 721.0, 721.0, 722.0, 720.0, 721.0, 721.0, 722.0, 724.0, 726.0, 722.0],
      "WindowWidth": [1530.0, 1520.0, 1517.0, 1534.0, 1516.0, 1517.0, 1517.0, 1512.0, 1512.0, 1515.0, 1515.0, 1513.0, 1516.0, 1516.0, 1520.0, 1518.0, 1518.0, 1519.0, 1519.0, 1516.0, 1517.0, 1521.0, 1520.0, 1518.0, 1519.0, 1520.0, 1519.0, 1520.0, 1517.0, 1516.0, 1518.0, 1520.0, 1521.0, 1517.0, 1518.0, 1519.0, 1522.0, 1520.0, 1520.0, 1522.0, 1517.0, 1517.0, 1517.0, 1519.0, 1519.0, 1517.0, 1519.0, 1519.0, 1520.0, 1519.0, 1520.0, 1519.0, 1520.0, 1521.0, 1517.0, 1519.0, 1521.0, 1518.0, 1517.0, 1516.0, 1517.0, 1518.0, 1520.0, 1518.0, 1515.0, 1516.0, 1519.0, 1518.0, 1518.0, 1517.0, 1520.0, 1526.0, 1524.0, 1524.0, 1520.0, 1521.0, 1517.0, 1518.0, 1521.0, 1522.0, 1521.0, 1518.0, 1520.0, 1521.0, 1520.0, 1519.0, 1518.0, 1521.0, 1520.0, 1519.0, 1520.0, 1519.0, 1520.0, 1521.0, 1520.0, 1521.0, 1526.0, 1522.0, 1523.0, 1518.0, 1520.0, 1522.0, 1524.0, 1519.0, 1519.0, 1521.0, 1520.0, 1520.0, 1520.0, 1525.0, 1519.0, 1519.0, 1520.0, 1518.0, 1519.0, 1525.0, 1546.0, 1531.0, 1523.0, 1527.0, 1524.0, 1520.0, 1519.0, 1518.0, 1516.0, 1520.0, 1515.0, 1516.0, 1520.0, 1522.0, 1526.0, 1527.0, 1519.0, 1526.0, 1526.0, 1525.0, 1529.0, 1524.0, 1527.0, 1527.0, 1526.0, 1529.0, 1525.0, 1530.0, 1525.0, 1523.0, 1531.0, 1526.0, 1529.0, 1526.0, 1528.0, 1533.0, 1525.0, 1530.0, 1527.0, 1531.0, 1532.0, 1526.0, 1533.0, 1527.0, 1529.0, 1525.0, 1527.0, 1525.0, 1528.0, 1525.0, 1524.0, 1530.0, 1524.0, 1528.0, 1525.0, 1529.0, 1530.0, 1523.0, 1524.0, 1528.0, 1524.0, 1529.0, 1526.0, 1528.0, 1529.0, 1525.0, 1528.0, 1526.0, 1522.0, 1525.0, 1525.0, 1523.0, 1530.0, 1526.0, 1534.0, 1539.0, 1535.0, 1524.0, 1526.0, 1530.0, 1524.0, 1524.0, 1526.0, 1531.0, 1526.0, 1527.0, 1529.0, 1525.0, 1526.0, 1528.0, 1530.0, 1534.0, 1540.0, 1529.0]
    },
    "slices": {}
  }
}