{
  "AcquisitionMatrixPE": 64,
  "AcquisitionNumber": 1,
  "AcquisitionTime": "18:25:23.150000",
  "BandwidthPerPixelPhaseEncode": 30.637,
  "BaseResolution": 64,
  "BidsGuess": [
    "func",
    "_acq-epfid2_dir-AP_run-10_bold"
],
  "CoilCombinationMethod": "Sum of Squares",
  "CoilString": "C:HEA;HEP",
  "ConversionSoftware": "dcm2niix",
  "ConversionSoftwareVersion": "v1.0.20240202",
  "DerivedVendorReportedEchoSpacing": 0.000510004,
  "DeviceSerialNumber": "35119",
  "DwellTime": 3.5e-06,
  "EchoTime": 0.03,
  "EffectiveEchoSpacing": 0.000510004,
  "FlipAngle": 78,
  "HeudiconvVersion": "1.1.6",
  "ImageComments": "V",
  "ImageOrientationPatientDICOM": [0.999864, 0.005398, 0.015583, 0, 0.94491, -0.32733],
  "ImageOrientationText": "Tra>Cor(-19.1)>Sag(0.9)",
  "ImageType": [
    "ORIGINAL",
    "PRIMARY",
    "M",
    "ND",
    "MOSAIC"
],
  "ImagingFrequency": 123.251888,
  "InPlanePhaseEncodingDirectionDICOM": "COL",
  "InstitutionAddress": "Chaucer Road  15,Cambridge,UK,GB,CB2 2EF",
  "InstitutionName": "MRC-CBU",
  "MRAcquisitionType": "2D",
  "MagneticFieldStrength": 3,
  "Manufacturer": "Siemens",
  "ManufacturersModelName": "TrioTim",
  "MatrixCoilMode": "SENSE",
  "Modality": "MR",
  "NonlinearGradientCorrection": false,
  "PartialFourier": 1,
  "PatientPosition": "HFS",
  "PercentPhaseFOV": 100,
  "PercentSampling": 100,
  "PhaseEncodingDirection": "j-",
  "PhaseEncodingSteps": 64,
  "PhaseResolution": 1,
  "PixelBandwidth": 2230,
  "ProcedureStepDescription": "CBU^Neuroimaging",
  "ProtocolName": "CBU_DWEPI_BOLD210",
  "PulseSequenceDetails": "%SiemensSeq%\\ep2d_bold",
  "ReceiveCoilName": "HeadMatrix",
  "ReconMatrixPE": 64,
  "RepetitionTime": 2,
  "SAR": 0.114176,
  "ScanOptions": "FS",
  "ScanningSequence": "EP",
  "SequenceName": "*epfid2d1_64",
  "SequenceVariant": "SK",
  "SeriesDescription": "CBU_DWEPI_BOLD210",
  "SeriesNumber": 10,
  "ShimSetting": [-7785, -8818, -2078, 923, 191, 107, -108, -53],
  "SliceThickness": 3,
  "SliceTiming": [0, 1.035, 0.06, 1.095, 0.1225, 1.155, 0.1825, 1.2175, 0.2425, 1.2775, 0.305, 1.3375, 0.365, 1.4, 0.425, 1.46, 0.4875, 1.52, 0.5475, 1.5825, 0.6075, 1.6425, 0.67, 1.7025, 0.73, 1.765, 0.79, 1.825, 0.8525, 1.885, 0.9125, 1.9475, 0.9725],
  "SoftwareVersions": "syngo MR B15",
  "SpacingBetweenSlices": 3.75,
  "StationName": "MRC35119",
  "TaskName": "faceprocessing",
  "TotalReadoutTime": 0.0321303,
  "TxRefAmp": 295.172,
  "dcmmeta_affine": [
    [-2.9995920658111572, 0.0, 0.06184297427535057, 96.6086654663086],
    [-0.016194000840187073, 2.8347299098968506, -1.2273205518722534, -59.0399284362793],
    [0.04674899950623512, 0.9819899797439575, 3.5429306030273438, -71.94488525390625],
    [0.0, 0.0, 0.0, 1.0]
],
  "dcmmeta_reorient_transform": [
    [0.0, -1.0, 0.0, 63.0],
    [1.0, 0.0, 0.0, 0.0],
    [0.0, 0.0, 1.0, 0.0],
    [0.0, 0.0, 0.0, 1.0]
],
  "dcmmeta_shape": [64, 64, 33, 210],
  "dcmmeta_slice_dim": 2,
  "dcmmeta_version": 0.6,
  "global": {
    "const": {
      "AcquisitionMatrix": [64, 0, 0, 64],
      "AngioFlag": "N",
      "BitsAllocated": 16,
      "BitsStored": 12,
      "Columns": 384,
      "EchoNumbers": 1,
      "EchoTime": 30.0,
      "EchoTrainLength": 1,
      "FlipAngle": 78.0,
      "HighBit": 11,
      "ImageOrientationPatient": [0.999864, 0.005398, 0.015583, -0.0, 0.94491, -0.32733],
      "ImagePositionPatient": [-576.543383, -575.6959, 139.559042],
      "ImageType": [
        "ORIGINAL",
        "PRIMARY",
        "M",
        "ND",
        "MOSAIC"
],
      "ImagedNucleus": "1H",
      "ImagingFrequency": 123.251888,
      "InPlanePhaseEncodingDirection": "COL",
      "MRAcquisitionType": "2D",
      "MagneticFieldStrength": 3.0,
      "Manufacturer": "SIEMENS",
      "ManufacturerModelName": "TrioTim",
      "Modality": "MR",
      "NumberOfAverages": 1.0,
      "NumberOfPhaseEncodingSteps": 64,
      "PercentPhaseFieldOfView": 100.0,
      "PercentSampling": 100.0,
      "PerformedProcedureStepStartTime": "172442.656000",
      "PhotometricInterpretation": "MONOCHROME2",
      "PixelAspectRatio": [1, 1],
      "PixelBandwidth": 2230.0,
      "PixelRepresentation": 0,
      "PixelSpacing": [3.0, 3.0],
      "ProtocolName": "CBU_DWEPI_BOLD210",
      "RepetitionTime": 2000.0,
      "Rows": 384,
      "SAR": 0.114176,
      "SamplesPerPixel": 1,
      "ScanOptions": "FS",
      "ScanningSequence": "EP",
      "SequenceName": "*epfid2d1_64",
      "SequenceVariant": "SK",
      "SeriesDescription": "CBU_DWEPI_BOLD210",
      "SeriesNumber": 10,
      "SeriesTime": "182526.578000",
      "SliceLocation": -47.055935,
      "SliceThickness": 3.0,
      "SmallestImagePixelValue": 0,
      "SoftwareVersions": "syngo MR B15",
      "SpacingBetweenSlices": 3.75,
      "SpecificCharacterSet": "ISO_IR 100",
      "StudyID": "1",
      "StudyTime": "172442.609000",
      "TransmitCoilName": "Body",
      "VariableFlipAngleFlag": "N",
      "WindowCenterWidthExplanation": "Algo1",
      "dBdt": 0.0},
    "slices": {}
  },
  "time": {
    "samples": {
      "AcquisitionNumber": [1, 2, 3, 4, 5, 6, 7, 8, 9, 10, 11, 12, 13, 14, 15, 16, 17, 18, 19, 20, 21, 22, 23, 24, 25, 26, 27, 28, 29, 30, 31, 32, 33, 34, 35, 36, 37, 38, 39, 40, 41, 42, 43, 44, 45, 46, 47, 48, 49, 50, 51, 52, 53, 54, 55, 56, 57, 58, 59, 60, 61, 62, 63, 64, 65, 66, 67, 68, 69, 70, 71, 72, 73, 74, 75, 76, 77, 78, 79, 80, 81, 82, 83, 84, 85, 86, 87, 88, 89, 90, 91, 92, 93, 94, 95, 96, 97, 98, 99, 100, 101, 102, 103, 104, 105, 106, 107, 108, 109, 110, 111, 112, 113, 114, 115, 116, 117, 118, 119, 120, 121, 122, 123, 124, 125, 126, 127, 128, 129, 130, 131, 132, 133, 134, 135, 136, 137, 138, 139, 140, 141, 142, 143, 144, 145, 146, 147, 148, 149, 150, 151, 152, 153, 154, 155, 156, 157, 158, 159, 160, 161, 162, 163, 164, 165, 166, 167, 168, 169, 170, 171, 172, 173, 174, 175, 176, 177, 178, 179, 180, 181, 182, 183, 184, 185, 186, 187, 188, 189, 190, 191, 192, 193, 194, 195, 196, 197, 198, 199, 200, 201, 202, 203, 204, 205, 206, 207, 208, 209, 210],
      "AcquisitionTime": ["182523.150000", "182525.157500", "182527.167500", "182529.175000", "182531.182500", "182533.190000", "182535.197500", "182537.207500", "182539.215000", "182541.222500", "182543.230000", "182545.237500", "182547.247500", "182549.255000", "182551.262500", "182553.270000", "182555.280000", "182557.287500", "182559.295000", "182601.302500", "182603.310000", "182605.320000", "182607.327500", "182609.335000", "182611.342500", "182613.350000", "182615.360000", "182617.367500", "182619.375000", "182621.382500", "182623.392500", "182625.400000", "182627.407500", "182629.415000", "182631.422500", "182633.432500", "182635.440000", "182637.447500", "182639.455000", "182641.462500", "182643.472500", "182645.480000", "182647.487500", "182649.495000", "182651.502500", "182653.512500", "182655.520000", "182657.527500", "182659.535000", "182701.545000", "182703.552500", "182705.560000", "182707.567500", "182709.575000", "182711.585000", "182713.592500", "182715.600000", "182717.607500", "182719.615000", "182721.625000", "182723.632500", "182725.640000", "182727.647500", "182729.657500", "182731.665000", "182733.672500", "182735.680000", "182737.687500", "182739.697500", "182741.705000", "182743.712500", "182745.720000", "182747.727500", "182749.737500", "182751.745000", "182753.752500", "182755.760000", "182757.770000", "182759.777500", "182801.785000", "182803.792500", "182805.800000", "182807.810000", "182809.817500", "182811.825000", "182813.832500", "182815.840000", "182817.850000", "182819.857500", "182821.865000", "182823.872500", "182825.880000", "182827.890000", "182829.897500", "182831.905000", "182833.912500", "182835.922500", "182837.930000", "182839.937500", "182841.945000", "182843.952500", "182845.962500", "182847.970000", "182849.977500", "182851.985000", "182853.992500", "182856.002500", "182858.010000", "182900.017500", "182902.025000", "182904.035000", "182906.042500", "182908.050000", "182910.057500", "182912.065000", "182914.075000", "182916.082500", "182918.090000", "182920.097500", "182922.105000", "182924.115000", "182926.122500", "182928.130000", "182930.137500", "182932.147500", "182934.155000", "182936.162500", "182938.170000", "182940.177500", "182942.187500", "182944.195000", "182946.202500", "182948.210000", "182950.217500", "182952.227500", "182954.235000", "182956.242500", "182958.250000", "183000.257500", "183002.267500", "183004.275000", "183006.282500", "183008.290000", "183010.300000", "183012.307500", "183014.315000", "183016.322500", "183018.330000", "183020.340000", "183022.347500", "183024.355000", "183026.362500", "183028.370000", "183030.380000", "183032.387500", "183034.395000", "183036.402500", "183038.412500", "183040.420000", "183042.427500", "183044.435000", "183046.442500", "183048.452500", "183050.460000", "183052.467500", "183054.475000", "183056.482500", "183058.492500", "183100.500000", "183102.507500", "183104.515000", "183106.525000", "183108.532500", "183110.540000", "183112.547500", "183114.555000", "183116.565000", "183118.572500", "183120.580000", "183122.587500", "183124.595000", "183126.605000", "183128.612500", "183130.620000", "183132.627500", "183134.637500", "183136.645000", "183138.652500", "183140.660000", "183142.667500", "183144.677500", "183146.685000", "183148.692500", "183150.700000", "183152.707500", "183154.717500", "183156.725000", "183158.732500", "183200.740000", "183202.747500", "183204.757500", "183206.765000", "183208.772500", "183210.780000", "183212.790000", "183214.797500", "183216.805000", "183218.812500", "183220.820000", "183222.830000"],
      "ContentTime": ["182526.593000", "182528.578000", "182530.578000", "182532.578000", "182534.578000", "182537.078000", "182538.578000", "182540.578000", "182542.578000", "182544.578000", "182546.578000", "182548.578000", "182550.578000", "182552.578000", "182554.578000", "182556.578000", "182558.578000", "182600.578000", "182602.578000", "182604.578000", "182606.578000", "182608.578000", "182611.078000", "182612.578000", "182614.578000", "182616.578000", "182618.578000", "182620.578000", "182622.578000", "182624.578000", "182626.578000", "182628.578000", "182630.578000", "182632.578000", "182634.578000", "182636.578000", "182638.578000", "182640.578000", "182643.078000", "182644.578000", "182646.578000", "182648.578000", "182650.578000", "182652.578000", "182654.578000", "182656.578000", "182658.578000", "182700.578000", "182702.578000", "182704.578000", "182706.578000", "182708.578000", "182710.578000", "182712.578000", "182714.578000", "182716.578000", "182718.578000", "182720.578000", "182722.578000", "182724.578000", "182727.078000", "182728.578000", "182730.578000", "182732.578000", "182734.578000", "182736.578000", "182738.578000", "182741.078000", "182742.578000", "182744.578000", "182746.578000", "182748.578000", "182750.578000", "182752.578000", "182754.578000", "182756.578000", "182758.578000", "182800.578000", "182802.578000", "182805.078000", "182806.578000", "182808.578000", "182810.578000", "182812.578000", "182814.578000", "182816.578000", "182818.578000", "182820.578000", "182822.578000", "182824.578000", "182826.578000", "182828.578000", "182830.578000", "182832.578000", "182834.578000", "182836.578000", "182838.578000", "182840.578000", "182842.578000", "182844.578000", "182846.578000", "182848.578000", "182850.578000", "182852.578000", "182854.578000", "182856.578000", "182859.078000", "182900.578000", "182902.578000", "182904.578000", "182906.578000", "182908.578000", "182910.578000", "182912.578000", "182914.578000", "182916.578000", "182918.578000", "182920.578000", "182922.578000", "182924.578000", "182926.578000", "182928.578000", "182930.578000", "182932.578000", "182934.578000", "182936.578000", "182938.578000", "182940.578000", "182942.578000", "182944.578000", "182946.578000", "182948.578000", "182950.578000", "182952.578000", "182954.578000", "182956.578000", "182959.078000", "183000.578000", "183002.578000", "183004.578000", "183006.578000", "183008.578000", "183010.578000", "183012.578000", "183014.578000", "183016.578000", "183018.578000", "183020.578000", "183022.578000", "183024.578000", "183026.578000", "183028.578000", "183030.578000", "183032.578000", "183034.578000", "183036.578000", "183038.578000", "183040.578000", "183042.578000", "183044.578000", "183046.578000", "183048.578000", "183050.578000", "183052.578000", "183054.578000", "183056.578000", "183058.578000", "183100.578000", "183102.578000", "183104.578000", "183106.578000", "183108.578000", "183110.578000", "183112.578000", "183114.578000", "183116.578000", "183119.078000", "183120.578000", "183122.578000", "183124.578000", "183126.578000", "183128.578000", "183130.578000", "183132.578000", "183135.078000", "183136.578000", "183138.578000", "183140.578000", "183142.578000", "183144.578000", "183146.578000", "183148.578000", "183150.578000", "183152.578000", "183154.578000", "183157.078000", "183158.578000", "183200.578000", "183202.578000", "183204.578000", "183207.078000", "183208.578000", "183210.578000", "183212.578000", "183214.578000", "183216.578000", "183218.578000", "183220.578000", "183222.578000", "183224.484000"],
      "InstanceCreationTime": ["182526.593000", "182528.578000", "182530.578000", "182532.578000", "182534.578000", "182537.078000", "182538.578000", "182540.578000", "182542.578000", "182544.578000", "182546.578000", "182548.578000", "182550.578000", "182552.578000", "182554.578000", "182556.578000", "182558.578000", "182600.578000", "182602.578000", "182604.578000", "182606.578000", "182608.578000", "182611.078000", "182612.578000", "182614.578000", "182616.578000", "182618.578000", "182620.578000", "182622.578000", "182624.578000", "182626.578000", "182628.578000", "182630.578000", "182632.578000", "182634.578000", "182636.578000", "182638.578000", "182640.578000", "182643.078000", "182644.578000", "182646.578000", "182648.578000", "182650.578000", "182652.578000", "182654.578000", "182656.578000", "182658.578000", "182700.578000", "182702.578000", "182704.578000", "182706.578000", "182708.578000", "182710.578000", "182712.578000", "182714.578000", "182716.578000", "182718.578000", "182720.578000", "182722.578000", "182724.578000", "182727.078000", "182728.578000", "182730.578000", "182732.578000", "182734.578000", "182736.578000", "182738.578000", "182741.078000", "182742.578000", "182744.578000", "182746.578000", "182748.578000", "182750.578000", "182752.578000", "182754.578000", "182756.578000", "182758.578000", "182800.578000", "182802.578000", "182805.078000", "182806.578000", "182808.578000", "182810.578000", "182812.578000", "182814.578000", "182816.578000", "182818.578000", "182820.578000", "182822.578000", "182824.578000", "182826.578000", "182828.578000", "182830.578000", "182832.578000", "182834.578000", "182836.578000", "182838.578000", "182840.578000", "182842.578000", "182844.578000", "182846.578000", "182848.578000", "182850.578000", "182852.578000", "182854.578000", "182856.578000", "182859.078000", "182900.578000", "182902.578000", "182904.578000", "182906.578000", "182908.578000", "182910.578000", "182912.578000", "182914.578000", "182916.578000", "182918.578000", "182920.578000", "182922.578000", "182924.578000", "182926.578000", "182928.578000", "182930.578000", "182932.578000", "182934.578000", "182936.578000", "182938.578000", "182940.578000", "182942.578000", "182944.578000", "182946.578000", "182948.578000", "182950.578000", "182952.578000", "182954.578000", "182956.578000", "182959.078000", "183000.578000", "183002.578000", "183004.578000", "183006.578000", "183008.578000", "183010.578000", "183012.578000", "183014.578000", "183016.578000", "183018.578000", "183020.578000", "183022.578000", "183024.578000", "183026.578000", "183028.578000", "183030.578000", "183032.578000", "183034.578000", "183036.578000", "183038.578000", "183040.578000", "183042.578000", "183044.578000", "183046.578000", "183048.578000", "183050.578000", "183052.578000", "183054.578000", "183056.578000", "183058.578000", "183100.578000", "183102.578000", "183104.578000", "183106.578000", "183108.578000", "183110.578000", "183112.578000", "183114.578000", "183116.578000", "183119.078000", "183120.578000", "183122.578000", "183124.578000", "183126.578000", "183128.578000", "183130.578000", "183132.578000", "183135.078000", "183136.578000", "183138.578000", "183140.578000", "183142.578000", "183144.578000", "183146.578000", "183148.578000", "183150.578000", "183152.578000", "183154.578000", "183157.078000", "183158.578000", "183200.578000", "183202.578000", "183204.578000", "183207.078000", "183208.578000", "183210.578000", "183212.578000", "183214.578000", "183216.578000", "183218.578000", "183220.578000", "183222.578000", "183224.484000"],
      "InstanceNumber": [1, 2, 3, 4, 5, 6, 7, 8, 9, 10, 11, 12, 13, 14, 15, 16, 17, 18, 19, 20, 21, 22, 23, 24, 25, 26, 27, 28, 29, 30, 31, 32, 33, 34, 35, 36, 37, 38, 39, 40, 41, 42, 43, 44, 45, 46, 47, 48, 49, 50, 51, 52, 53, 54, 55, 56, 57, 58, 59, 60, 61, 62, 63, 64, 65, 66, 67, 68, 69, 70, 71, 72, 73, 74, 75, 76, 77, 78, 79, 80, 81, 82, 83, 84, 85, 86, 87, 88, 89, 90, 91, 92, 93, 94, 95, 96, 97, 98, 99, 100, 101, 102, 103, 104, 105, 106, 107, 108, 109, 110, 111, 112, 113, 114, 115, 116, 117, 118, 119, 120, 121, 122, 123, 124, 125, 126, 127, 128, 129, 130, 131, 132, 133, 134, 135, 136, 137, 138, 139, 140, 141, 142, 143, 144, 145, 146, 147, 148, 149, 150, 151, 152, 153, 154, 155, 156, 157, 158, 159, 160, 161, 162, 163, 164, 165, 166, 167, 168, 169, 170, 171, 172, 173, 174, 175, 176, 177, 178, 179, 180, 181, 182, 183, 184, 185, 186, 187, 188, 189, 190, 191, 192, 193, 194, 195, 196, 197, 198, 199, 200, 201, 202, 203, 204, 205, 206, 207, 208, 209, 210],
      "LargestImagePixelValue": [1938, 1839, 1795, 1801, 1796, 1791, 1775, 1778, 1794, 1794, 1791, 1771, 1772, 1781, 1769, 1772, 1755, 1779, 1764, 1775, 1762, 1783, 1768, 1762, 1779, 1774, 1770, 1774, 1762, 1773, 1772, 1739, 1765, 1767, 1739, 1730, 1741, 1742, 1748, 1746, 1734, 1745, 1729, 1733, 1788, 1726, 1712, 1710, 1713, 1737, 1713, 1849, 1719, 1712, 1736, 1776, 1731, 1934, 1736, 1680, 1690, 1682, 1686, 1711, 1703, 1664, 1686, 1736, 1722, 1680, 1662, 1721, 1708, 1724, 1742, 1736, 1690, 1676, 1711, 1747, 1741, 1668, 1669, 1714, 1650, 1661, 1676, 1694, 1723, 1739, 1728, 1652, 1689, 1697, 1681, 1793, 1676, 1694, 1750, 1705, 1689, 1705, 1699, 1756, 1759, 1741, 1680, 1787, 1652, 1859, 2007, 1981, 1925, 2118, 1950, 1862, 1631, 1991, 1958, 1692, 1735, 2018, 1716, 1692, 1978, 1684, 1716, 1998, 1708, 1686, 1826, 1990, 1707, 1736, 1935, 1749, 1675, 1858, 2065, 1772, 1696, 1867, 1928, 1708, 1835, 1733, 2245, 1716, 2161, 1724, 2027, 2091, 1998, 1902, 1717, 2102, 2158, 1734, 1944, 2054, 2052, 1843, 2151, 2080, 2050, 1944, 1753, 1966, 1759, 2040, 2131, 1934, 1983, 1722, 2082, 1808, 1943, 2047, 2103, 1744, 2159, 1749, 1970, 2088, 2015, 1756, 1837, 1918, 2078, 2082, 1891, 1912, 2047, 2103, 1951, 1818, 2116, 1915, 1934, 2004, 2129, 2208, 1750, 2052, 2148, 1771, 1980, 1790, 1955, 1876],
      "WindowCenter": [725.0, 721.0, 719.0, 718.0, 719.0, 720.0, 720.0, 720.0, 720.0, 720.0, 720.0, 719.0, 719.0, 720.0, 720.0, 719.0, 719.0, 719.0, 720.0, 721.0, 719.0, 719.0, 720.0, 721.0, 721.0, 720.0, 721.0, 721.0, 720.0, 720.0, 720.0, 720.0, 719.0, 719.0, 719.0, 719.0, 719.0, 720.0, 720.0, 719.0, 720.0, 719.0, 719.0, 720.0, 720.0, 719.0, 719.0, 719.0, 720.0, 720.0, 720.0, 720.0, 719.0, 719.0, 720.0, 722.0, 721.0, 720.0, 719.0, 718.0, 720.0, 719.0, 719.0, 719.0, 719.0, 718.0, 719.0, 719.0, 720.0, 720.0, 719.0, 719.0, 719.0, 719.0, 719.0, 719.0, 718.0, 719.0, 720.0, 720.0, 719.0, 719.0, 718.0, 719.0, 719.0, 719.0, 718.0, 719.0, 721.0, 721.0, 719.0, 719.0, 719.0, 719.0, 720.0, 720.0, 719.0, 719.0, 719.0, 718.0, 719.0, 718.0, 718.0, 720.0, 720.0, 719.0, 718.0, 724.0, 724.0, 719.0, 719.0, 718.0, 718.0, 719.0, 717.0, 717.0, 718.0, 719.0, 719.0, 717.0, 717.0, 720.0, 719.0, 719.0, 721.0, 720.0, 719.0, 720.0, 719.0, 720.0, 720.0, 722.0, 721.0, 720.0, 722.0, 720.0, 719.0, 719.0, 721.0, 719.0, 720.0, 720.0, 720.0, 719.0, 726.0, 718.0, 721.0, 719.0, 721.0, 719.0, 720.0, 719.0, 718.0, 720.0, 719.0, 720.0, 720.0, 719.0, 719.0, 720.0, 720.0, 719.0, 719.0, 719.0, 718.0, 718.0, 719.0, 720.0, 719.0, 719.0, 720.0, 718.0, 719.0, 719.0, 720.0, 719.0, 719.0, 719.0, 720.0, 719.0, 721.0, 718.0, 719.0, 719.0, 718.0, 717.0, 718.0, 719.0, 722.0, 721.0, 719.0, 718.0, 719.0, 720.0, 719.0, 719.0, 720.0, 719.0, 719.0, 718.0, 720.0, 720.0, 718.0, 719.0, 720.0, 717.0, 719.0, 721.0, 721.0, 719.0],
      "WindowWidth": [1540.0, 1527.0, 1522.0, 1522.0, 1524.0, 1525.0, 1525.0, 1525.0, 1525.0, 1526.0, 1524.0, 1522.0, 1523.0, 1527.0, 1526.0, 1524.0, 1523.0, 1523.0, 1526.0, 1527.0, 1524.0, 1523.0, 1526.0, 1527.0, 1528.0, 1526.0, 1527.0, 1527.0, 1526.0, 1526.0, 1526.0, 1525.0, 1524.0, 1523.0, 1524.0, 1524.0, 1524.0, 1525.0, 1525.0, 1524.0, 1525.0, 1523.0, 1524.0, 1526.0, 1526.0, 1524.0, 1523.0, 1525.0, 1526.0, 1526.0, 1526.0, 1527.0, 1524.0, 1524.0, 1527.0, 1532.0, 1528.0, 1527.0, 1523.0, 1522.0, 1525.0, 1523.0, 1523.0, 1525.0, 1524.0, 1522.0, 1522.0, 1524.0, 1526.0, 1525.0, 1523.0, 1523.0, 1523.0, 1525.0, 1524.0, 1523.0, 1522.0, 1523.0, 1525.0, 1525.0, 1525.0, 1523.0, 1521.0, 1523.0, 1525.0, 1523.0, 1521.0, 1525.0, 1529.0, 1528.0, 1525.0, 1522.0, 1523.0, 1524.0, 1525.0, 1527.0, 1524.0, 1522.0, 1523.0, 1522.0, 1524.0, 1522.0, 1520.0, 1525.0, 1525.0, 1523.0, 1521.0, 1537.0, 1537.0, 1524.0, 1523.0, 1521.0, 1521.0, 1523.0, 1517.0, 1520.0, 1521.0, 1523.0, 1523.0, 1518.0, 1519.0, 1527.0, 1524.0, 1523.0, 1528.0, 1525.0, 1524.0, 1527.0, 1524.0, 1525.0, 1526.0, 1530.0, 1529.0, 1527.0, 1531.0, 1525.0, 1522.0, 1525.0, 1528.0, 1525.0, 1526.0, 1527.0, 1527.0, 1524.0, 1541.0, 1521.0, 1529.0, 1523.0, 1529.0, 1524.0, 1525.0, 1523.0, 1522.0, 1525.0, 1522.0, 1525.0, 1527.0, 1523.0, 1524.0, 1525.0, 1526.0, 1523.0, 1524.0, 1523.0, 1522.0, 1522.0, 1523.0, 1526.0, 1523.0, 1524.0, 1527.0, 1522.0, 1524.0, 1523.0, 1526.0, 1522.0, 1522.0, 1523.0, 1526.0, 1523.0, 1528.0, 1521.0, 1523.0, 1523.0, 1521.0, 1519.0, 1519.0, 1523.0, 1530.0, 1527.0, 1523.0, 1521.0, 1523.0, 1525.0, 1524.0, 1522.0, 1526.0, 1524.0, 1522.0, 1521.0, 1525.0, 1527.0, 1520.0, 1523.0, 1525.0, 1518.0, 1524.0, 1527.0, 1530.0, 1525.0]
    },
    "slices": {}
  }
}