{
  "AcquisitionMatrixPE": 64,
  "AcquisitionNumber": 1,
  "AcquisitionTime": "17:28:36.900000",
  "BandwidthPerPixelPhaseEncode": 30.637,
  "BaseResolution": 64,
  "BidsGuess": [
    "func",
    "_acq-epfid2_dir-AP_run-7_bold"
],
  "CoilCombinationMethod": "Sum of Squares",
  "CoilString": "C:HEA;HEP",
  "ConversionSoftware": "dcm2niix",
  "ConversionSoftwareVersion": "v1.0.20240202",
  "DerivedVendorReportedEchoSpacing": 0.000510004,
  "DeviceSerialNumber": "35119",
  "DwellTime": 3.5e-06,
  "EchoTime": 0.03,
  "EffectiveEchoSpacing": 0.000510004,
  "FlipAngle": 78,
  "HeudiconvVersion": "1.1.6",
  "ImageComments": "V",
  "ImageOrientationPatientDICOM": [1, 0, 0, 0, 0.910684, -0.413104],
  "ImageOrientationText": "Tra>Cor(-24.4)",
  "ImageType": [
    "ORIGINAL",
    "PRIMARY",
    "M",
    "ND",
    "MOSAIC"
],
  "ImagingFrequency": 123.252093,
  "InPlanePhaseEncodingDirectionDICOM": "COL",
  "InstitutionAddress": "Chaucer Road  15,Cambridge,UK,GB,CB2 2EF",
  "InstitutionName": "MRC-CBU",
  "MRAcquisitionType": "2D",
  "MagneticFieldStrength": 3,
  "Manufacturer": "Siemens",
  "ManufacturersModelName": "TrioTim",
  "MatrixCoilMode": "SENSE",
  "Modality": "MR",
  "NonlinearGradientCorrection": false,
  "PartialFourier": 1,
  "PatientPosition": "HFS",
  "PercentPhaseFOV": 100,
  "PercentSampling": 100,
  "PhaseEncodingDirection": "j-",
  "PhaseEncodingSteps": 64,
  "PhaseResolution": 1,
  "PixelBandwidth": 2230,
  "ProcedureStepDescription": "CBU^Neuroimaging",
  "ProtocolName": "CBU_DWEPI_BOLD210",
  "PulseSequenceDetails": "%SiemensSeq%\\ep2d_bold",
  "ReceiveCoilName": "HeadMatrix",
  "ReconMatrixPE": 64,
  "RepetitionTime": 2,
  "SAR": 0.136455,
  "ScanOptions": "FS",
  "ScanningSequence": "EP",
  "SequenceName": "*epfid2d1_64",
  "SequenceVariant": "SK",
  "SeriesDescription": "CBU_DWEPI_BOLD210",
  "SeriesNumber": 7,
  "ShimSetting": [-7659, -8651, -2413, 982, 721, 682, -645, 57],
  "SliceThickness": 3,
  "SliceTiming": [0, 1.035, 0.06, 1.095, 0.1225, 1.155, 0.1825, 1.2175, 0.2425, 1.2775, 0.305, 1.3375, 0.365, 1.4, 0.425, 1.46, 0.4875, 1.52, 0.5475, 1.5825, 0.6075, 1.6425, 0.67, 1.7025, 0.73, 1.765, 0.79, 1.825, 0.8525, 1.885, 0.9125, 1.9475, 0.9725],
  "SoftwareVersions": "syngo MR B15",
  "SpacingBetweenSlices": 3.9,
  "StationName": "MRC35119",
  "TaskName": "faceprocessing",
  "TotalReadoutTime": 0.0321303,
  "TxRefAmp": 297.418,
  "dcmmeta_affine": [
    [-3.0, 0.0, 0.0, 100.06779479980469],
    [0.0, 2.7320520877838135, -1.6111055612564087, -53.22117614746094],
    [0.0, 1.2393120527267456, 3.5516676902770996, -73.49205780029297],
    [0.0, 0.0, 0.0, 1.0]
],
  "dcmmeta_reorient_transform": [
    [0.0, -1.0, 0.0, 63.0],
    [1.0, 0.0, 0.0, 0.0],
    [0.0, 0.0, 1.0, 0.0],
    [0.0, 0.0, 0.0, 1.0]
],
  "dcmmeta_shape": [64, 64, 33, 210],
  "dcmmeta_slice_dim": 2,
  "dcmmeta_version": 0.6,
  "global": {
    "const": {
      "AcquisitionMatrix": [64, 0, 0, 64],
      "AngioFlag": "N",
      "BitsAllocated": 16,
      "BitsStored": 12,
      "Columns": 384,
      "EchoNumbers": 1,
      "EchoTime": 30.0,
      "EchoTrainLength": 1,
      "FlipAngle": 78.0,
      "HighBit": 11,
      "ImageOrientationPatient": [1.0, 0.0, 0.0, 0.0, 0.910684, -0.413104],
      "ImagePositionPatient": [-580.067797, -556.02642, 202.874516],
      "ImageType": [
        "ORIGINAL",
        "PRIMARY",
        "M",
        "ND",
        "MOSAIC"
],
      "ImagedNucleus": "1H",
      "ImagingFrequency": 123.252093,
      "InPlanePhaseEncodingDirection": "COL",
      "MRAcquisitionType": "2D",
      "MagneticFieldStrength": 3.0,
      "Manufacturer": "SIEMENS",
      "ManufacturerModelName": "TrioTim",
      "Modality": "MR",
      "NumberOfAverages": 1.0,
      "NumberOfPhaseEncodingSteps": 64,
      "PercentPhaseFieldOfView": 100.0,
      "PercentSampling": 100.0,
      "PerformedProcedureStepStartTime": "164906.828000",
      "PhotometricInterpretation": "MONOCHROME2",
      "PixelAspectRatio": [1, 1],
      "PixelBandwidth": 2230.0,
      "PixelRepresentation": 0,
      "PixelSpacing": [3.0, 3.0],
      "ProtocolName": "CBU_DWEPI_BOLD210",
      "RepetitionTime": 2000.0,
      "Rows": 384,
      "SAR": 0.136455,
      "SamplesPerPixel": 1,
      "ScanOptions": "FS",
      "ScanningSequence": "EP",
      "SequenceName": "*epfid2d1_64",
      "SequenceVariant": "SK",
      "SeriesDescription": "CBU_DWEPI_BOLD210",
      "SeriesNumber": 7,
      "SeriesTime": "172840.453000",
      "SliceLocation": -44.94247,
      "SliceThickness": 3.0,
      "SmallestImagePixelValue": 0,
      "SoftwareVersions": "syngo MR B15",
      "SpacingBetweenSlices": 3.9,
      "SpecificCharacterSet": "ISO_IR 100",
      "StudyID": "1",
      "StudyTime": "164906.781000",
      "TransmitCoilName": "Body",
      "VariableFlipAngleFlag": "N",
      "WindowCenterWidthExplanation": "Algo1",
      "dBdt": 0.0},
    "slices": {}
  },
  "time": {
    "samples": {
      "AcquisitionNumber": [1, 2, 3, 4, 5, 6, 7, 8, 9, 10, 11, 12, 13, 14, 15, 16, 17, 18, 19, 20, 21, 22, 23, 24, 25, 26, 27, 28, 29, 30, 31, 32, 33, 34, 35, 36, 37, 38, 39, 40, 41, 42, 43, 44, 45, 46, 47, 48, 49, 50, 51, 52, 53, 54, 55, 56, 57, 58, 59, 60, 61, 62, 63, 64, 65, 66, 67, 68, 69, 70, 71, 72, 73, 74, 75, 76, 77, 78, 79, 80, 81, 82, 83, 84, 85, 86, 87, 88, 89, 90, 91, 92, 93, 94, 95, 96, 97, 98, 99, 100, 101, 102, 103, 104, 105, 106, 107, 108, 109, 110, 111, 112, 113, 114, 115, 116, 117, 118, 119, 120, 121, 122, 123, 124, 125, 126, 127, 128, 129, 130, 131, 132, 133, 134, 135, 136, 137, 138, 139, 140, 141, 142, 143, 144, 145, 146, 147, 148, 149, 150, 151, 152, 153, 154, 155, 156, 157, 158, 159, 160, 161, 162, 163, 164, 165, 166, 167, 168, 169, 170, 171, 172, 173, 174, 175, 176, 177, 178, 179, 180, 181, 182, 183, 184, 185, 186, 187, 188, 189, 190, 191, 192, 193, 194, 195, 196, 197, 198, 199, 200, 201, 202, 203, 204, 205, 206, 207, 208, 209, 210],
      "AcquisitionTime": ["172836.900000", "172838.907500", "172840.917500", "172842.925000", "172844.932500", "172846.940000", "172848.947500", "172850.957500", "172852.965000", "172854.972500", "172856.980000", "172858.987500", "172900.997500", "172903.005000", "172905.012500", "172907.020000", "172909.030000", "172911.037500", "172913.045000", "172915.052500", "172917.060000", "172919.070000", "172921.077500", "172923.085000", "172925.092500", "172927.100000", "172929.110000", "172931.117500", "172933.125000", "172935.132500", "172937.142500", "172939.150000", "172941.157500", "172943.165000", "172945.172500", "172947.182500", "172949.190000", "172951.197500", "172953.205000", "172955.212500", "172957.222500", "172959.230000", "173001.237500", "173003.245000", "173005.255000", "173007.262500", "173009.270000", "173011.277500", "173013.285000", "173015.295000", "173017.302500", "173019.310000", "173021.317500", "173023.325000", "173025.335000", "173027.342500", "173029.350000", "173031.357500", "173033.367500", "173035.375000", "173037.382500", "173039.390000", "173041.397500", "173043.407500", "173045.415000", "173047.422500", "173049.430000", "173051.437500", "173053.447500", "173055.455000", "173057.462500", "173059.470000", "173101.477500", "173103.487500", "173105.495000", "173107.502500", "173109.510000", "173111.520000", "173113.527500", "173115.535000", "173117.542500", "173119.550000", "173121.560000", "173123.567500", "173125.575000", "173127.582500", "173129.590000", "173131.600000", "173133.607500", "173135.615000", "173137.622500", "173139.632500", "173141.640000", "173143.647500", "173145.655000", "173147.662500", "173149.672500", "173151.680000", "173153.687500", "173155.695000", "173157.702500", "173159.712500", "173201.720000", "173203.727500", "173205.735000", "173207.745000", "173209.752500", "173211.760000", "173213.767500", "173215.775000", "173217.785000", "173219.792500", "173221.800000", "173223.807500", "173225.815000", "173227.825000", "173229.832500", "173231.840000", "173233.847500", "173235.855000", "173237.865000", "173239.872500", "173241.880000", "173243.887500", "173245.897500", "173247.905000", "173249.912500", "173251.920000", "173253.927500", "173255.937500", "173257.945000", "173259.952500", "173301.960000", "173303.967500", "173305.977500", "173307.985000", "173309.992500", "173312.000000", "173314.010000", "173316.017500", "173318.025000", "173320.032500", "173322.040000", "173324.050000", "173326.057500", "173328.065000", "173330.072500", "173332.080000", "173334.090000", "173336.097500", "173338.105000", "173340.112500", "173342.122500", "173344.130000", "173346.137500", "173348.145000", "173350.152500", "173352.162500", "173354.170000", "173356.177500", "173358.185000", "173400.192500", "173402.202500", "173404.210000", "173406.217500", "173408.225000", "173410.232500", "173412.242500", "173414.250000", "173416.257500", "173418.265000", "173420.275000", "173422.282500", "173424.290000", "173426.297500", "173428.305000", "173430.315000", "173432.322500", "173434.330000", "173436.337500", "173438.345000", "173440.355000", "173442.362500", "173444.370000", "173446.377500", "173448.387500", "173450.395000", "173452.402500", "173454.410000", "173456.417500", "173458.427500", "173500.435000", "173502.442500", "173504.450000", "173506.457500", "173508.467500", "173510.475000", "173512.482500", "173514.490000", "173516.500000", "173518.507500", "173520.515000", "173522.522500", "173524.530000", "173526.540000", "173528.547500", "173530.555000", "173532.562500", "173534.570000", "173536.580000"],
      "ContentTime": ["172840.468000", "172841.953000", "172843.953000", "172845.953000", "172848.453000", "172849.953000", "172851.953000", "172854.453000", "172856.453000", "172857.953000", "172900.453000", "172901.953000", "172903.953000", "172906.453000", "172907.953000", "172909.953000", "172912.453000", "172913.953000", "172915.953000", "172917.953000", "172919.953000", "172921.953000", "172923.953000", "172925.953000", "172928.453000", "172929.953000", "172932.453000", "172933.953000", "172935.953000", "172937.953000", "172939.953000", "172941.953000", "172944.453000", "172946.453000", "172947.953000", "172950.453000", "172951.953000", "172953.953000", "172956.453000", "172957.953000", "173000.453000", "173001.953000", "173004.453000", "173006.453000", "173007.953000", "173009.953000", "173011.953000", "173013.953000", "173016.453000", "173017.953000", "173020.453000", "173022.453000", "173023.953000", "173025.953000", "173028.453000", "173029.953000", "173032.453000", "173033.953000", "173035.953000", "173037.953000", "173039.953000", "173041.953000", "173043.953000", "173045.953000", "173048.453000", "173049.953000", "173051.953000", "173053.953000", "173055.953000", "173058.453000", "173100.453000", "173101.953000", "173104.453000", "173105.953000", "173108.453000", "173110.453000", "173111.953000", "173113.953000", "173115.953000", "173117.953000", "173120.453000", "173121.953000", "173123.953000", "173126.453000", "173127.953000", "173130.453000", "173132.453000", "173133.953000", "173136.453000", "173137.953000", "173139.953000", "173141.953000", "173143.953000", "173145.953000", "173147.953000", "173149.953000", "173151.953000", "173153.953000", "173155.953000", "173158.453000", "173159.953000", "173201.953000", "173204.453000", "173205.953000", "173208.453000", "173209.953000", "173212.453000", "173213.953000", "173215.953000", "173217.953000", "173219.953000", "173221.953000", "173224.453000", "173225.953000", "173227.953000", "173230.453000", "173231.953000", "173233.953000", "173235.953000", "173237.953000", "173240.453000", "173241.953000", "173243.953000", "173246.453000", "173247.953000", "173249.968000", "173251.953000", "173253.953000", "173255.953000", "173257.953000", "173259.953000", "173302.453000", "173303.953000", "173305.953000", "173307.953000", "173309.953000", "173312.453000", "173313.953000", "173316.453000", "173317.953000", "173319.953000", "173321.953000", "173323.953000", "173325.953000", "173328.453000", "173330.453000", "173331.953000", "173333.953000", "173335.953000", "173338.453000", "173339.953000", "173341.953000", "173343.953000", "173345.953000", "173348.453000", "173349.953000", "173352.453000", "173353.953000", "173355.953000", "173357.953000", "173400.453000", "173401.953000", "173403.953000", "173405.953000", "173407.953000", "173409.953000", "173411.953000", "173413.953000", "173416.453000", "173417.953000", "173419.953000", "173422.453000", "173424.453000", "173425.953000", "173427.953000", "173429.953000", "173432.453000", "173433.953000", "173435.953000", "173438.453000", "173439.953000", "173441.953000", "173443.953000", "173446.453000", "173448.453000", "173449.953000", "173451.953000", "173453.953000", "173456.453000", "173457.953000", "173459.953000", "173501.953000", "173504.453000", "173505.953000", "173507.953000", "173509.953000", "173511.953000", "173513.953000", "173515.953000", "173518.453000", "173519.953000", "173521.953000", "173523.953000", "173525.953000", "173527.953000", "173529.953000", "173531.953000", "173533.953000", "173536.453000", "173537.921000"],
      "InstanceCreationTime": ["172840.468000", "172841.953000", "172843.953000", "172845.953000", "172848.453000", "172849.953000", "172851.953000", "172854.453000", "172856.453000", "172857.953000", "172900.453000", "172901.953000", "172903.953000", "172906.453000", "172907.953000", "172909.953000", "172912.453000", "172913.953000", "172915.953000", "172917.953000", "172919.953000", "172921.953000", "172923.953000", "172925.953000", "172928.453000", "172929.953000", "172932.453000", "172933.953000", "172935.953000", "172937.953000", "172939.953000", "172941.953000", "172944.453000", "172946.453000", "172947.953000", "172950.453000", "172951.953000", "172953.953000", "172956.453000", "172957.953000", "173000.453000", "173001.953000", "173004.453000", "173006.453000", "173007.953000", "173009.953000", "173011.953000", "173013.953000", "173016.453000", "173017.953000", "173020.453000", "173022.453000", "173023.953000", "173025.953000", "173028.453000", "173029.953000", "173032.453000", "173033.953000", "173035.953000", "173037.953000", "173039.953000", "173041.953000", "173043.953000", "173045.953000", "173048.453000", "173049.953000", "173051.953000", "173053.953000", "173055.953000", "173058.453000", "173100.453000", "173101.953000", "173104.453000", "173105.953000", "173108.453000", "173110.453000", "173111.953000", "173113.953000", "173115.953000", "173117.953000", "173120.453000", "173121.953000", "173123.953000", "173126.453000", "173127.953000", "173130.453000", "173132.453000", "173133.953000", "173136.453000", "173137.953000", "173139.953000", "173141.953000", "173143.953000", "173145.953000", "173147.953000", "173149.953000", "173151.953000", "173153.953000", "173155.953000", "173158.453000", "173159.953000", "173201.953000", "173204.453000", "173205.953000", "173208.453000", "173209.953000", "173212.453000", "173213.953000", "173215.953000", "173217.953000", "173219.953000", "173221.953000", "173224.453000", "173225.953000", "173227.953000", "173230.453000", "173231.953000", "173233.953000", "173235.953000", "173237.953000", "173240.453000", "173241.953000", "173243.953000", "173246.453000", "173247.953000", "173249.968000", "173251.953000", "173253.953000", "173255.953000", "173257.953000", "173259.953000", "173302.453000", "173303.953000", "173305.953000", "173307.953000", "173309.953000", "173312.453000", "173313.953000", "173316.453000", "173317.953000", "173319.953000", "173321.953000", "173323.953000", "173325.953000", "173328.453000", "173330.453000", "173331.953000", "173333.953000", "173335.953000", "173338.453000", "173339.953000", "173341.953000", "173343.953000", "173345.953000", "173348.453000", "173349.953000", "173352.453000", "173353.953000", "173355.953000", "173357.953000", "173400.453000", "173401.953000", "173403.953000", "173405.953000", "173407.953000", "173409.953000", "173411.953000", "173413.953000", "173416.453000", "173417.953000", "173419.953000", "173422.453000", "173424.453000", "173425.953000", "173427.953000", "173429.953000", "173432.453000", "173433.953000", "173435.953000", "173438.453000", "173439.953000", "173441.953000", "173443.953000", "173446.453000", "173448.453000", "173449.953000", "173451.953000", "173453.953000", "173456.453000", "173457.953000", "173459.953000", "173501.953000", "173504.453000", "173505.953000", "173507.953000", "173509.953000", "173511.953000", "173513.953000", "173515.953000", "173518.453000", "173519.953000", "173521.953000", "173523.953000", "173525.953000", "173527.953000", "173529.953000", "173531.953000", "173533.953000", "173536.453000", "173537.921000"],
      "InstanceNumber": [1, 2, 3, 4, 5, 6, 7, 8, 9, 10, 11, 12, 13, 14, 15, 16, 17, 18, 19, 20, 21, 22, 23, 24, 25, 26, 27, 28, 29, 30, 31, 32, 33, 34, 35, 36, 37, 38, 39, 40, 41, 42, 43, 44, 45, 46, 47, 48, 49, 50, 51, 52, 53, 54, 55, 56, 57, 58, 59, 60, 61, 62, 63, 64, 65, 66, 67, 68, 69, 70, 71, 72, 73, 74, 75, 76, 77, 78, 79, 80, 81, 82, 83, 84, 85, 86, 87, 88, 89, 90, 91, 92, 93, 94, 95, 96, 97, 98, 99, 100, 101, 102, 103, 104, 105, 106, 107, 108, 109, 110, 111, 112, 113, 114, 115, 116, 117, 118, 119, 120, 121, 122, 123, 124, 125, 126, 127, 128, 129, 130, 131, 132, 133, 134, 135, 136, 137, 138, 139, 140, 141, 142, 143, 144, 145, 146, 147, 148, 149, 150, 151, 152, 153, 154, 155, 156, 157, 158, 159, 160, 161, 162, 163, 164, 165, 166, 167, 168, 169, 170, 171, 172, 173, 174, 175, 176, 177, 178, 179, 180, 181, 182, 183, 184, 185, 186, 187, 188, 189, 190, 191, 192, 193, 194, 195, 196, 197, 198, 199, 200, 201, 202, 203, 204, 205, 206, 207, 208, 209, 210],
      "LargestImagePixelValue": [2256, 1889, 1776, 1796, 1792, 1765, 2020, 1773, 1754, 1782, 1795, 1860, 1802, 1867, 1811, 1793, 1855, 1809, 1782, 1764, 1763, 1786, 2086, 1783, 1779, 1778, 1780, 1783, 1787, 1798, 2140, 1803, 1762, 1818, 1756, 1775, 1743, 1742, 1788, 1781, 1925, 1782, 1821, 1795, 1772, 1749, 1780, 1761, 1863, 1764, 1752, 1765, 2007, 1766, 1792, 1744, 1762, 1747, 1881, 1761, 1821, 1772, 1772, 1981, 1894, 1774, 1759, 1801, 1997, 1787, 1802, 1768, 1845, 1748, 1773, 1765, 1824, 1778, 1838, 1826, 1846, 1773, 1759, 1796, 1779, 2253, 1993, 1775, 1811, 1777, 1919, 1810, 1809, 1822, 1785, 1814, 1777, 1767, 1762, 1788, 1768, 1760, 1787, 1793, 1776, 1893, 1853, 1815, 1798, 1771, 1829, 1812, 1784, 1755, 1795, 1770, 1772, 1792, 1805, 1813, 1890, 1867, 1811, 1759, 1769, 1778, 2042, 1789, 1767, 1770, 1755, 1925, 1886, 2193, 1922, 1843, 1773, 1785, 1780, 1776, 1828, 1784, 1788, 1775, 1784, 1763, 1797, 1791, 1798, 1791, 1771, 1806, 1787, 1779, 1783, 1786, 1783, 1801, 1848, 1933, 1938, 1778, 1774, 1797, 2015, 1801, 1811, 1827, 1780, 1779, 1789, 1794, 1804, 1954, 2289, 1941, 1777, 1780, 1827, 1818, 1924, 1953, 1833, 1794, 1789, 1899, 1774, 2098, 1824, 1792, 1777, 1786, 1783, 1782, 1804, 1798, 1790, 1775, 1788, 1782, 1786, 1783, 1791, 1868, 1877, 1824, 1795, 1792, 1838, 1798],
      "WindowCenter": [764.0, 759.0, 759.0, 760.0, 762.0, 761.0, 760.0, 759.0, 760.0, 761.0, 762.0, 762.0, 760.0, 761.0, 762.0, 762.0, 759.0, 757.0, 758.0, 761.0, 762.0, 763.0, 763.0, 759.0, 758.0, 758.0, 761.0, 761.0, 762.0, 763.0, 762.0, 759.0, 758.0, 758.0, 758.0, 757.0, 758.0, 759.0, 761.0, 761.0, 760.0, 759.0, 759.0, 757.0, 758.0, 761.0, 763.0, 761.0, 760.0, 760.0, 761.0, 761.0, 761.0, 758.0, 758.0, 759.0, 759.0, 758.0, 759.0, 759.0, 759.0, 761.0, 763.0, 762.0, 761.0, 762.0, 764.0, 765.0, 762.0, 759.0, 759.0, 758.0, 757.0, 758.0, 759.0, 760.0, 764.0, 765.0, 761.0, 758.0, 758.0, 757.0, 758.0, 761.0, 762.0, 761.0, 759.0, 759.0, 763.0, 763.0, 761.0, 761.0, 762.0, 761.0, 761.0, 760.0, 759.0, 758.0, 757.0, 758.0, 759.0, 759.0, 761.0, 761.0, 761.0, 762.0, 760.0, 758.0, 759.0, 760.0, 760.0, 758.0, 758.0, 760.0, 761.0, 760.0, 761.0, 762.0, 763.0, 762.0, 760.0, 758.0, 759.0, 762.0, 763.0, 763.0, 761.0, 758.0, 759.0, 760.0, 762.0, 761.0, 761.0, 762.0, 760.0, 758.0, 758.0, 760.0, 760.0, 761.0, 761.0, 761.0, 760.0, 759.0, 759.0, 760.0, 760.0, 761.0, 761.0, 761.0, 759.0, 758.0, 759.0, 760.0, 760.0, 760.0, 762.0, 763.0, 763.0, 761.0, 760.0, 761.0, 760.0, 759.0, 758.0, 755.0, 758.0, 760.0, 759.0, 761.0, 760.0, 760.0, 763.0, 765.0, 765.0, 760.0, 758.0, 757.0, 756.0, 756.0, 761.0, 762.0, 758.0, 757.0, 760.0, 764.0, 764.0, 762.0, 758.0, 759.0, 761.0, 762.0, 760.0, 761.0, 763.0, 761.0, 760.0, 760.0, 759.0, 761.0, 761.0, 762.0, 763.0, 763.0, 761.0, 759.0, 758.0, 758.0, 761.0, 763.0],
      "WindowWidth": [1621.0, 1608.0, 1607.0, 1611.0, 1616.0, 1612.0, 1611.0, 1609.0, 1611.0, 1614.0, 1615.0, 1615.0, 1612.0, 1613.0, 1616.0, 1615.0, 1607.0, 1604.0, 1606.0, 1612.0, 1616.0, 1619.0, 1618.0, 1607.0, 1604.0, 1607.0, 1612.0, 1614.0, 1617.0, 1618.0, 1616.0, 1608.0, 1605.0, 1605.0, 1604.0, 1604.0, 1605.0, 1609.0, 1614.0, 1613.0, 1611.0, 1609.0, 1607.0, 1603.0, 1605.0, 1613.0, 1619.0, 1612.0, 1611.0, 1610.0, 1614.0, 1614.0, 1612.0, 1606.0, 1606.0, 1607.0, 1607.0, 1606.0, 1608.0, 1608.0, 1608.0, 1614.0, 1617.0, 1616.0, 1612.0, 1615.0, 1620.0, 1622.0, 1615.0, 1609.0, 1608.0, 1605.0, 1604.0, 1605.0, 1608.0, 1609.0, 1620.0, 1622.0, 1612.0, 1606.0, 1604.0, 1603.0, 1605.0, 1614.0, 1614.0, 1614.0, 1608.0, 1608.0, 1618.0, 1617.0, 1613.0, 1613.0, 1614.0, 1612.0, 1612.0, 1611.0, 1608.0, 1605.0, 1603.0, 1605.0, 1607.0, 1609.0, 1613.0, 1614.0, 1614.0, 1615.0, 1610.0, 1606.0, 1608.0, 1609.0, 1609.0, 1605.0, 1607.0, 1611.0, 1613.0, 1610.0, 1612.0, 1615.0, 1619.0, 1615.0, 1609.0, 1605.0, 1609.0, 1616.0, 1617.0, 1616.0, 1613.0, 1604.0, 1607.0, 1612.0, 1615.0, 1612.0, 1612.0, 1616.0, 1610.0, 1605.0, 1606.0, 1610.0, 1611.0, 1613.0, 1613.0, 1613.0, 1611.0, 1607.0, 1608.0, 1611.0, 1612.0, 1614.0, 1614.0, 1614.0, 1607.0, 1605.0, 1609.0, 1610.0, 1610.0, 1610.0, 1617.0, 1619.0, 1618.0, 1614.0, 1610.0, 1612.0, 1611.0, 1609.0, 1605.0, 1598.0, 1606.0, 1610.0, 1608.0, 1613.0, 1611.0, 1610.0, 1617.0, 1624.0, 1622.0, 1611.0, 1605.0, 1602.0, 1600.0, 1600.0, 1614.0, 1616.0, 1605.0, 1604.0, 1611.0, 1621.0, 1620.0, 1615.0, 1606.0, 1607.0, 1613.0, 1615.0, 1609.0, 1613.0, 1617.0, 1612.0, 1611.0, 1611.0, 1608.0, 1615.0, 1612.0, 1616.0, 1618.0, 1617.0, 1612.0, 1607.0, 1604.0, 1605.0, 1613.0, 1619.0]
    },
    "slices": {}
  }
}