{
  "AcquisitionMatrixPE": 64,
  "AcquisitionNumber": 1,
  "AcquisitionTime": "17:51:52.930000",
  "BandwidthPerPixelPhaseEncode": 30.637,
  "BaseResolution": 64,
  "BidsGuess": [
    "func",
    "_acq-epfid2_dir-AP_run-10_bold"
],
  "CoilCombinationMethod": "Sum of Squares",
  "CoilString": "C:HEA;HEP",
  "ConversionSoftware": "dcm2niix",
  "ConversionSoftwareVersion": "v1.0.20240202",
  "DerivedVendorReportedEchoSpacing": 0.000510004,
  "DeviceSerialNumber": "35119",
  "DwellTime": 3.5e-06,
  "EchoTime": 0.03,
  "EffectiveEchoSpacing": 0.000510004,
  "FlipAngle": 78,
  "HeudiconvVersion": "1.1.6",
  "ImageComments": "V",
  "ImageOrientationPatientDICOM": [1, 0, 0, 0, 0.910684, -0.413104],
  "ImageOrientationText": "Tra>Cor(-24.4)",
  "ImageType": [
    "ORIGINAL",
    "PRIMARY",
    "M",
    "ND",
    "MOSAIC"
],
  "ImagingFrequency": 123.252093,
  "InPlanePhaseEncodingDirectionDICOM": "COL",
  "InstitutionAddress": "Chaucer Road  15,Cambridge,UK,GB,CB2 2EF",
  "InstitutionName": "MRC-CBU",
  "MRAcquisitionType": "2D",
  "MagneticFieldStrength": 3,
  "Manufacturer": "Siemens",
  "ManufacturersModelName": "TrioTim",
  "MatrixCoilMode": "SENSE",
  "Modality": "MR",
  "NonlinearGradientCorrection": false,
  "PartialFourier": 1,
  "PatientPosition": "HFS",
  "PercentPhaseFOV": 100,
  "PercentSampling": 100,
  "PhaseEncodingDirection": "j-",
  "PhaseEncodingSteps": 64,
  "PhaseResolution": 1,
  "PixelBandwidth": 2230,
  "ProcedureStepDescription": "CBU^Neuroimaging",
  "ProtocolName": "CBU_DWEPI_BOLD210",
  "PulseSequenceDetails": "%SiemensSeq%\\ep2d_bold",
  "ReceiveCoilName": "HeadMatrix",
  "ReconMatrixPE": 64,
  "RepetitionTime": 2,
  "SAR": 0.136455,
  "ScanOptions": "FS",
  "ScanningSequence": "EP",
  "SequenceName": "*epfid2d1_64",
  "SequenceVariant": "SK",
  "SeriesDescription": "CBU_DWEPI_BOLD210",
  "SeriesNumber": 10,
  "ShimSetting": [-7659, -8651, -2413, 982, 721, 682, -645, 57],
  "SliceThickness": 3,
  "SliceTiming": [0, 1.035, 0.06, 1.095, 0.1225, 1.155, 0.1825, 1.2175, 0.2425, 1.2775, 0.305, 1.3375, 0.365, 1.4, 0.425, 1.46, 0.4875, 1.52, 0.5475, 1.5825, 0.6075, 1.6425, 0.67, 1.7025, 0.73, 1.765, 0.79, 1.825, 0.8525, 1.885, 0.9125, 1.9475, 0.9725],
  "SoftwareVersions": "syngo MR B15",
  "SpacingBetweenSlices": 3.9,
  "StationName": "MRC35119",
  "TaskName": "faceprocessing",
  "TotalReadoutTime": 0.0321303,
  "TxRefAmp": 297.418,
  "dcmmeta_affine": [
    [-3.0, 0.0, 0.0, 100.06779479980469],
    [0.0, 2.7320520877838135, -1.6111055612564087, -53.22117614746094],
    [0.0, 1.2393120527267456, 3.5516676902770996, -73.49205780029297],
    [0.0, 0.0, 0.0, 1.0]
],
  "dcmmeta_reorient_transform": [
    [0.0, -1.0, 0.0, 63.0],
    [1.0, 0.0, 0.0, 0.0],
    [0.0, 0.0, 1.0, 0.0],
    [0.0, 0.0, 0.0, 1.0]
],
  "dcmmeta_shape": [64, 64, 33, 210],
  "dcmmeta_slice_dim": 2,
  "dcmmeta_version": 0.6,
  "global": {
    "const": {
      "AcquisitionMatrix": [64, 0, 0, 64],
      "AngioFlag": "N",
      "BitsAllocated": 16,
      "BitsStored": 12,
      "Columns": 384,
      "EchoNumbers": 1,
      "EchoTime": 30.0,
      "EchoTrainLength": 1,
      "FlipAngle": 78.0,
      "HighBit": 11,
      "ImageOrientationPatient": [1.0, 0.0, 0.0, 0.0, 0.910684, -0.413104],
      "ImagePositionPatient": [-580.067797, -556.02642, 202.874516],
      "ImageType": [
        "ORIGINAL",
        "PRIMARY",
        "M",
        "ND",
        "MOSAIC"
],
      "ImagedNucleus": "1H",
      "ImagingFrequency": 123.252093,
      "InPlanePhaseEncodingDirection": "COL",
      "MRAcquisitionType": "2D",
      "MagneticFieldStrength": 3.0,
      "Manufacturer": "SIEMENS",
      "ManufacturerModelName": "TrioTim",
      "Modality": "MR",
      "NumberOfAverages": 1.0,
      "NumberOfPhaseEncodingSteps": 64,
      "PercentPhaseFieldOfView": 100.0,
      "PercentSampling": 100.0,
      "PerformedProcedureStepStartTime": "164906.828000",
      "PhotometricInterpretation": "MONOCHROME2",
      "PixelAspectRatio": [1, 1],
      "PixelBandwidth": 2230.0,
      "PixelRepresentation": 0,
      "PixelSpacing": [3.0, 3.0],
      "ProtocolName": "CBU_DWEPI_BOLD210",
      "RepetitionTime": 2000.0,
      "Rows": 384,
      "SAR": 0.136455,
      "SamplesPerPixel": 1,
      "ScanOptions": "FS",
      "ScanningSequence": "EP",
      "SequenceName": "*epfid2d1_64",
      "SequenceVariant": "SK",
      "SeriesDescription": "CBU_DWEPI_BOLD210",
      "SeriesNumber": 10,
      "SeriesTime": "175156.781000",
      "SliceLocation": -44.94247,
      "SliceThickness": 3.0,
      "SmallestImagePixelValue": 0,
      "SoftwareVersions": "syngo MR B15",
      "SpacingBetweenSlices": 3.9,
      "SpecificCharacterSet": "ISO_IR 100",
      "StudyID": "1",
      "StudyTime": "164906.781000",
      "TransmitCoilName": "Body",
      "VariableFlipAngleFlag": "N",
      "WindowCenterWidthExplanation": "Algo1",
      "dBdt": 0.0},
    "slices": {}
  },
  "time": {
    "samples": {
      "AcquisitionNumber": [1, 2, 3, 4, 5, 6, 7, 8, 9, 10, 11, 12, 13, 14, 15, 16, 17, 18, 19, 20, 21, 22, 23, 24, 25, 26, 27, 28, 29, 30, 31, 32, 33, 34, 35, 36, 37, 38, 39, 40, 41, 42, 43, 44, 45, 46, 47, 48, 49, 50, 51, 52, 53, 54, 55, 56, 57, 58, 59, 60, 61, 62, 63, 64, 65, 66, 67, 68, 69, 70, 71, 72, 73, 74, 75, 76, 77, 78, 79, 80, 81, 82, 83, 84, 85, 86, 87, 88, 89, 90, 91, 92, 93, 94, 95, 96, 97, 98, 99, 100, 101, 102, 103, 104, 105, 106, 107, 108, 109, 110, 111, 112, 113, 114, 115, 116, 117, 118, 119, 120, 121, 122, 123, 124, 125, 126, 127, 128, 129, 130, 131, 132, 133, 134, 135, 136, 137, 138, 139, 140, 141, 142, 143, 144, 145, 146, 147, 148, 149, 150, 151, 152, 153, 154, 155, 156, 157, 158, 159, 160, 161, 162, 163, 164, 165, 166, 167, 168, 169, 170, 171, 172, 173, 174, 175, 176, 177, 178, 179, 180, 181, 182, 183, 184, 185, 186, 187, 188, 189, 190, 191, 192, 193, 194, 195, 196, 197, 198, 199, 200, 201, 202, 203, 204, 205, 206, 207, 208, 209, 210],
      "AcquisitionTime": ["175152.930000", "175154.937500", "175156.945000", "175158.955000", "175200.962500", "175202.970000", "175204.977500", "175206.985000", "175208.995000", "175211.002500", "175213.010000", "175215.017500", "175217.025000", "175219.035000", "175221.042500", "175223.050000", "175225.057500", "175227.065000", "175229.075000", "175231.082500", "175233.090000", "175235.097500", "175237.107500", "175239.115000", "175241.122500", "175243.130000", "175245.137500", "175247.147500", "175249.155000", "175251.162500", "175253.170000", "175255.177500", "175257.187500", "175259.195000", "175301.202500", "175303.210000", "175305.220000", "175307.227500", "175309.235000", "175311.242500", "175313.250000", "175315.260000", "175317.267500", "175319.275000", "175321.282500", "175323.290000", "175325.300000", "175327.307500", "175329.315000", "175331.322500", "175333.332500", "175335.340000", "175337.347500", "175339.355000", "175341.362500", "175343.372500", "175345.380000", "175347.387500", "175349.395000", "175351.402500", "175353.412500", "175355.420000", "175357.427500", "175359.435000", "175401.442500", "175403.452500", "175405.460000", "175407.467500", "175409.475000", "175411.485000", "175413.492500", "175415.500000", "175417.507500", "175419.515000", "175421.525000", "175423.532500", "175425.540000", "175427.547500", "175429.555000", "175431.565000", "175433.572500", "175435.580000", "175437.587500", "175439.597500", "175441.605000", "175443.612500", "175445.620000", "175447.627500", "175449.637500", "175451.645000", "175453.652500", "175455.660000", "175457.667500", "175459.677500", "175501.685000", "175503.692500", "175505.700000", "175507.710000", "175509.717500", "175511.725000", "175513.732500", "175515.740000", "175517.750000", "175519.757500", "175521.765000", "175523.772500", "175525.780000", "175527.790000", "175529.797500", "175531.805000", "175533.812500", "175535.820000", "175537.830000", "175539.837500", "175541.845000", "175543.852500", "175545.862500", "175547.870000", "175549.877500", "175551.885000", "175553.892500", "175555.902500", "175557.910000", "175559.917500", "175601.925000", "175603.932500", "175605.942500", "175607.950000", "175609.957500", "175611.965000", "175613.975000", "175615.982500", "175617.990000", "175619.997500", "175622.005000", "175624.015000", "175626.022500", "175628.030000", "175630.037500", "175632.045000", "175634.055000", "175636.062500", "175638.070000", "175640.077500", "175642.087500", "175644.095000", "175646.102500", "175648.110000", "175650.117500", "175652.127500", "175654.135000", "175656.142500", "175658.150000", "175700.157500", "175702.167500", "175704.175000", "175706.182500", "175708.190000", "175710.200000", "175712.207500", "175714.215000", "175716.222500", "175718.230000", "175720.240000", "175722.247500", "175724.255000", "175726.262500", "175728.270000", "175730.280000", "175732.287500", "175734.295000", "175736.302500", "175738.310000", "175740.320000", "175742.327500", "175744.335000", "175746.342500", "175748.352500", "175750.360000", "175752.367500", "175754.375000", "175756.382500", "175758.392500", "175800.400000", "175802.407500", "175804.415000", "175806.422500", "175808.432500", "175810.440000", "175812.447500", "175814.455000", "175816.465000", "175818.472500", "175820.480000", "175822.487500", "175824.495000", "175826.505000", "175828.512500", "175830.520000", "175832.527500", "175834.535000", "175836.545000", "175838.552500", "175840.560000", "175842.567500", "175844.577500", "175846.585000", "175848.592500", "175850.600000", "175852.607500"],
      "ContentTime": ["175156.781000", "175158.765000", "175200.765000", "175202.765000", "175204.765000", "175206.765000", "175208.765000", "175210.765000", "175212.765000", "175214.765000", "175216.765000", "175218.765000", "175220.765000", "175222.765000", "175224.765000", "175226.765000", "175228.765000", "175230.765000", "175232.765000", "175234.765000", "175236.765000", "175238.765000", "175240.765000", "175242.765000", "175244.765000", "175246.765000", "175248.765000", "175250.765000", "175252.765000", "175254.765000", "175256.765000", "175258.765000", "175300.765000", "175302.765000", "175304.765000", "175306.765000", "175308.765000", "175310.765000", "175312.765000", "175314.765000", "175316.765000", "175318.765000", "175320.765000", "175322.765000", "175324.765000", "175326.765000", "175328.765000", "175330.765000", "175332.765000", "175334.765000", "175336.765000", "175338.765000", "175340.765000", "175342.765000", "175344.765000", "175346.765000", "175348.765000", "175350.765000", "175352.765000", "175354.765000", "175356.765000", "175358.765000", "175400.765000", "175402.765000", "175404.765000", "175406.765000", "175408.765000", "175410.765000", "175412.765000", "175414.765000", "175416.765000", "175418.765000", "175420.765000", "175422.765000", "175424.765000", "175426.765000", "175428.765000", "175430.765000", "175432.765000", "175434.765000", "175436.765000", "175438.765000", "175440.765000", "175442.765000", "175444.765000", "175446.765000", "175448.765000", "175450.765000", "175452.765000", "175454.765000", "175456.765000", "175458.765000", "175500.765000", "175502.765000", "175504.765000", "175506.765000", "175508.765000", "175510.765000", "175512.765000", "175514.765000", "175516.765000", "175518.765000", "175520.765000", "175522.765000", "175524.765000", "175526.765000", "175528.765000", "175530.765000", "175532.765000", "175534.765000", "175536.765000", "175538.765000", "175540.765000", "175542.765000", "175544.765000", "175546.765000", "175548.765000", "175550.765000", "175552.765000", "175554.765000", "175556.765000", "175558.765000", "175600.765000", "175602.765000", "175604.765000", "175606.765000", "175608.765000", "175610.765000", "175612.765000", "175614.765000", "175616.765000", "175618.765000", "175620.765000", "175622.765000", "175624.765000", "175626.765000", "175628.765000", "175630.765000", "175632.765000", "175634.765000", "175636.765000", "175638.765000", "175640.765000", "175642.765000", "175644.765000", "175646.765000", "175648.765000", "175650.765000", "175652.765000", "175654.765000", "175656.765000", "175658.765000", "175700.765000", "175702.765000", "175704.765000", "175706.765000", "175708.765000", "175710.765000", "175712.765000", "175714.765000", "175716.765000", "175718.765000", "175720.765000", "175722.765000", "175724.765000", "175726.765000", "175728.765000", "175730.765000", "175732.765000", "175734.765000", "175736.765000", "175738.765000", "175740.765000", "175742.765000", "175744.765000", "175746.765000", "175748.765000", "175750.765000", "175752.765000", "175754.765000", "175756.765000", "175758.765000", "175800.765000", "175802.765000", "175804.765000", "175806.765000", "175808.765000", "175810.765000", "175812.765000", "175814.765000", "175816.765000", "175818.765000", "175820.765000", "175822.765000", "175824.765000", "175826.765000", "175828.765000", "175830.765000", "175832.765000", "175834.765000", "175836.765000", "175838.765000", "175840.765000", "175842.765000", "175844.765000", "175846.765000", "175848.765000", "175850.765000", "175852.765000", "175854.500000"],
      "InstanceCreationTime": ["175156.781000", "175158.765000", "175200.765000", "175202.765000", "175204.765000", "175206.765000", "175208.765000", "175210.765000", "175212.765000", "175214.765000", "175216.765000", "175218.765000", "175220.765000", "175222.765000", "175224.765000", "175226.765000", "175228.765000", "175230.765000", "175232.765000", "175234.765000", "175236.765000", "175238.765000", "175240.765000", "175242.765000", "175244.765000", "175246.765000", "175248.765000", "175250.765000", "175252.765000", "175254.765000", "175256.765000", "175258.765000", "175300.765000", "175302.765000", "175304.765000", "175306.765000", "175308.765000", "175310.765000", "175312.765000", "175314.765000", "175316.765000", "175318.765000", "175320.765000", "175322.765000", "175324.765000", "175326.765000", "175328.765000", "175330.765000", "175332.765000", "175334.765000", "175336.765000", "175338.765000", "175340.765000", "175342.765000", "175344.765000", "175346.765000", "175348.765000", "175350.765000", "175352.765000", "175354.765000", "175356.765000", "175358.765000", "175400.765000", "175402.765000", "175404.765000", "175406.765000", "175408.765000", "175410.765000", "175412.765000", "175414.765000", "175416.765000", "175418.765000", "175420.765000", "175422.765000", "175424.765000", "175426.765000", "175428.765000", "175430.765000", "175432.765000", "175434.765000", "175436.765000", "175438.765000", "175440.765000", "175442.765000", "175444.765000", "175446.765000", "175448.765000", "175450.765000", "175452.765000", "175454.765000", "175456.765000", "175458.765000", "175500.765000", "175502.765000", "175504.765000", "175506.765000", "175508.765000", "175510.765000", "175512.765000", "175514.765000", "175516.765000", "175518.765000", "175520.765000", "175522.765000", "175524.765000", "175526.765000", "175528.765000", "175530.765000", "175532.765000", "175534.765000", "175536.765000", "175538.765000", "175540.765000", "175542.765000", "175544.765000", "175546.765000", "175548.765000", "175550.765000", "175552.765000", "175554.765000", "175556.765000", "175558.765000", "175600.765000", "175602.765000", "175604.765000", "175606.765000", "175608.765000", "175610.765000", "175612.765000", "175614.765000", "175616.765000", "175618.765000", "175620.765000", "175622.765000", "175624.765000", "175626.765000", "175628.765000", "175630.765000", "175632.765000", "175634.765000", "175636.765000", "175638.765000", "175640.765000", "175642.765000", "175644.765000", "175646.765000", "175648.765000", "175650.765000", "175652.765000", "175654.765000", "175656.765000", "175658.765000", "175700.765000", "175702.765000", "175704.765000", "175706.765000", "175708.765000", "175710.765000", "175712.765000", "175714.765000", "175716.765000", "175718.765000", "175720.765000", "175722.765000", "175724.765000", "175726.765000", "175728.765000", "175730.765000", "175732.765000", "175734.765000", "175736.765000", "175738.765000", "175740.765000", "175742.765000", "175744.765000", "175746.765000", "175748.765000", "175750.765000", "175752.765000", "175754.765000", "175756.765000", "175758.765000", "175800.765000", "175802.765000", "175804.765000", "175806.765000", "175808.765000", "175810.765000", "175812.765000", "175814.765000", "175816.765000", "175818.765000", "175820.765000", "175822.765000", "175824.765000", "175826.765000", "175828.765000", "175830.765000", "175832.765000", "175834.765000", "175836.765000", "175838.765000", "175840.765000", "175842.765000", "175844.765000", "175846.765000", "175848.765000", "175850.765000", "175852.765000", "175854.500000"],
      "InstanceNumber": [1, 2, 3, 4, 5, 6, 7, 8, 9, 10, 11, 12, 13, 14, 15, 16, 17, 18, 19, 20, 21, 22, 23, 24, 25, 26, 27, 28, 29, 30, 31, 32, 33, 34, 35, 36, 37, 38, 39, 40, 41, 42, 43, 44, 45, 46, 47, 48, 49, 50, 51, 52, 53, 54, 55, 56, 57, 58, 59, 60, 61, 62, 63, 64, 65, 66, 67, 68, 69, 70, 71, 72, 73, 74, 75, 76, 77, 78, 79, 80, 81, 82, 83, 84, 85, 86, 87, 88, 89, 90, 91, 92, 93, 94, 95, 96, 97, 98, 99, 100, 101, 102, 103, 104, 105, 106, 107, 108, 109, 110, 111, 112, 113, 114, 115, 116, 117, 118, 119, 120, 121, 122, 123, 124, 125, 126, 127, 128, 129, 130, 131, 132, 133, 134, 135, 136, 137, 138, 139, 140, 141, 142, 143, 144, 145, 146, 147, 148, 149, 150, 151, 152, 153, 154, 155, 156, 157, 158, 159, 160, 161, 162, 163, 164, 165, 166, 167, 168, 169, 170, 171, 172, 173, 174, 175, 176, 177, 178, 179, 180, 181, 182, 183, 184, 185, 186, 187, 188, 189, 190, 191, 192, 193, 194, 195, 196, 197, 198, 199, 200, 201, 202, 203, 204, 205, 206, 207, 208, 209, 210],
      "LargestImagePixelValue": [2047, 1807, 1818, 1836, 1777, 1838, 1764, 1771, 2059, 1916, 1835, 1918, 1948, 1825, 2132, 1967, 1866, 1826, 2172, 1912, 1841, 1848, 1796, 1798, 1879, 1862, 2060, 1969, 2158, 1895, 1849, 1930, 1858, 1858, 1856, 1857, 1972, 1875, 1893, 1814, 1888, 1819, 2013, 2004, 1823, 1821, 2069, 2214, 1939, 1823, 1953, 2018, 1968, 1808, 1961, 1801, 2000, 1901, 1799, 2134, 1988, 2080, 1802, 2050, 1867, 1850, 1781, 1923, 1897, 1801, 1789, 1793, 1965, 1896, 2147, 1814, 1898, 2146, 1839, 1787, 1792, 1797, 1813, 1786, 2024, 2058, 2184, 1798, 1866, 1939, 2116, 1938, 1783, 1952, 2006, 2155, 1788, 1957, 1943, 2084, 1829, 1973, 2126, 1783, 2104, 2114, 2103, 1792, 1884, 2171, 1816, 1953, 1809, 1834, 2170, 1837, 1866, 2122, 2030, 1822, 1820, 2156, 1913, 1819, 2059, 2205, 1895, 1881, 1832, 1820, 2032, 2068, 2175, 1825, 1903, 1953, 1849, 1814, 2176, 1901, 1922, 2123, 1828, 1792, 1887, 2127, 1809, 2176, 2123, 1796, 2114, 1817, 1909, 2108, 1952, 1824, 1834, 1836, 1901, 1889, 1892, 1860, 2055, 2053, 1821, 2183, 1801, 2042, 1819, 1801, 1813, 2108, 2072, 1802, 2000, 1834, 1808, 2243, 1845, 1813, 1851, 1860, 2054, 1803, 2147, 1786, 2165, 1816, 1805, 1820, 1871, 1808, 2106, 1812, 1831, 1929, 2042, 1818, 1995, 1977, 1996, 1795, 1907, 2129, 1791, 1985, 2136, 1830, 1800, 1843],
      "WindowCenter": [767.0, 763.0, 762.0, 763.0, 765.0, 767.0, 766.0, 767.0, 767.0, 766.0, 766.0, 766.0, 767.0, 767.0, 768.0, 766.0, 765.0, 765.0, 767.0, 765.0, 765.0, 767.0, 770.0, 769.0, 766.0, 764.0, 765.0, 764.0, 764.0, 765.0, 764.0, 764.0, 766.0, 766.0, 766.0, 765.0, 765.0, 764.0, 766.0, 765.0, 764.0, 764.0, 765.0, 765.0, 765.0, 765.0, 766.0, 766.0, 764.0, 764.0, 766.0, 765.0, 764.0, 765.0, 768.0, 768.0, 766.0, 767.0, 765.0, 766.0, 766.0, 767.0, 765.0, 766.0, 764.0, 762.0, 763.0, 764.0, 765.0, 765.0, 764.0, 765.0, 766.0, 767.0, 768.0, 765.0, 766.0, 767.0, 765.0, 765.0, 767.0, 768.0, 771.0, 771.0, 769.0, 766.0, 765.0, 762.0, 762.0, 763.0, 764.0, 764.0, 763.0, 765.0, 765.0, 766.0, 764.0, 765.0, 765.0, 766.0, 765.0, 766.0, 766.0, 765.0, 766.0, 765.0, 765.0, 764.0, 766.0, 766.0, 764.0, 764.0, 764.0, 765.0, 766.0, 764.0, 763.0, 764.0, 765.0, 766.0, 767.0, 768.0, 766.0, 767.0, 767.0, 766.0, 763.0, 764.0, 764.0, 763.0, 764.0, 764.0, 765.0, 763.0, 764.0, 765.0, 767.0, 768.0, 766.0, 764.0, 763.0, 765.0, 763.0, 762.0, 763.0, 765.0, 763.0, 764.0, 764.0, 764.0, 766.0, 765.0, 765.0, 765.0, 764.0, 765.0, 768.0, 770.0, 769.0, 766.0, 763.0, 763.0, 764.0, 764.0, 763.0, 765.0, 763.0, 764.0, 764.0, 765.0, 764.0, 765.0, 765.0, 763.0, 764.0, 764.0, 764.0, 764.0, 762.0, 763.0, 764.0, 765.0, 765.0, 763.0, 765.0, 764.0, 764.0, 762.0, 764.0, 767.0, 767.0, 763.0, 764.0, 764.0, 767.0, 765.0, 764.0, 764.0, 765.0, 766.0, 766.0, 764.0, 763.0, 763.0, 763.0, 763.0, 763.0, 762.0, 763.0, 767.0],
      "WindowWidth": [1629.0, 1617.0, 1617.0, 1620.0, 1624.0, 1628.0, 1627.0, 1627.0, 1627.0, 1626.0, 1626.0, 1627.0, 1630.0, 1629.0, 1631.0, 1626.0, 1623.0, 1624.0, 1628.0, 1622.0, 1624.0, 1628.0, 1636.0, 1634.0, 1626.0, 1622.0, 1623.0, 1620.0, 1622.0, 1624.0, 1622.0, 1621.0, 1627.0, 1625.0, 1625.0, 1624.0, 1623.0, 1620.0, 1625.0, 1622.0, 1620.0, 1622.0, 1624.0, 1624.0, 1623.0, 1624.0, 1626.0, 1626.0, 1621.0, 1622.0, 1625.0, 1622.0, 1622.0, 1623.0, 1632.0, 1631.0, 1627.0, 1627.0, 1623.0, 1626.0, 1625.0, 1629.0, 1623.0, 1625.0, 1621.0, 1616.0, 1617.0, 1621.0, 1622.0, 1622.0, 1621.0, 1622.0, 1625.0, 1627.0, 1630.0, 1623.0, 1625.0, 1629.0, 1623.0, 1623.0, 1627.0, 1632.0, 1639.0, 1639.0, 1632.0, 1625.0, 1622.0, 1616.0, 1616.0, 1619.0, 1621.0, 1621.0, 1618.0, 1622.0, 1623.0, 1625.0, 1619.0, 1622.0, 1624.0, 1627.0, 1623.0, 1624.0, 1626.0, 1623.0, 1626.0, 1622.0, 1623.0, 1622.0, 1626.0, 1626.0, 1621.0, 1621.0, 1620.0, 1622.0, 1626.0, 1621.0, 1618.0, 1620.0, 1623.0, 1625.0, 1629.0, 1630.0, 1625.0, 1627.0, 1628.0, 1626.0, 1618.0, 1620.0, 1619.0, 1617.0, 1621.0, 1622.0, 1624.0, 1619.0, 1621.0, 1623.0, 1629.0, 1629.0, 1625.0, 1620.0, 1619.0, 1623.0, 1617.0, 1616.0, 1618.0, 1623.0, 1617.0, 1619.0, 1621.0, 1620.0, 1626.0, 1622.0, 1622.0, 1622.0, 1621.0, 1624.0, 1630.0, 1635.0, 1633.0, 1624.0, 1618.0, 1617.0, 1620.0, 1621.0, 1619.0, 1623.0, 1617.0, 1622.0, 1621.0, 1622.0, 1621.0, 1623.0, 1622.0, 1617.0, 1620.0, 1621.0, 1619.0, 1621.0, 1616.0, 1619.0, 1621.0, 1623.0, 1624.0, 1618.0, 1624.0, 1619.0, 1620.0, 1616.0, 1621.0, 1628.0, 1627.0, 1618.0, 1619.0, 1621.0, 1627.0, 1623.0, 1621.0, 1619.0, 1623.0, 1625.0, 1627.0, 1620.0, 1616.0, 1619.0, 1618.0, 1617.0, 1617.0, 1615.0, 1619.0, 1629.0]
    },
    "slices": {}
  }
}