{
  "AcquisitionMatrixPE": 64,
  "AcquisitionNumber": 1,
  "AcquisitionTime": "17:20:58.660000",
  "BandwidthPerPixelPhaseEncode": 30.637,
  "BaseResolution": 64,
  "BidsGuess": [
    "func",
    "_acq-epfid2_dir-AP_run-6_bold"
],
  "CoilCombinationMethod": "Sum of Squares",
  "CoilString": "C:HEA;HEP",
  "ConversionSoftware": "dcm2niix",
  "ConversionSoftwareVersion": "v1.0.20240202",
  "DerivedVendorReportedEchoSpacing": 0.000510004,
  "DeviceSerialNumber": "35119",
  "DwellTime": 3.5e-06,
  "EchoTime": 0.03,
  "EffectiveEchoSpacing": 0.000510004,
  "FlipAngle": 78,
  "HeudiconvVersion": "1.1.6",
  "ImageComments": "V",
  "ImageOrientationPatientDICOM": [1, 0, 0, 0, 0.910684, -0.413104],
  "ImageOrientationText": "Tra>Cor(-24.4)",
  "ImageType": [
    "ORIGINAL",
    "PRIMARY",
    "M",
    "ND",
    "MOSAIC"
],
  "ImagingFrequency": 123.252093,
  "InPlanePhaseEncodingDirectionDICOM": "COL",
  "InstitutionAddress": "Chaucer Road  15,Cambridge,UK,GB,CB2 2EF",
  "InstitutionName": "MRC-CBU",
  "MRAcquisitionType": "2D",
  "MagneticFieldStrength": 3,
  "Manufacturer": "Siemens",
  "ManufacturersModelName": "TrioTim",
  "MatrixCoilMode": "SENSE",
  "Modality": "MR",
  "NonlinearGradientCorrection": false,
  "PartialFourier": 1,
  "PatientPosition": "HFS",
  "PercentPhaseFOV": 100,
  "PercentSampling": 100,
  "PhaseEncodingDirection": "j-",
  "PhaseEncodingSteps": 64,
  "PhaseResolution": 1,
  "PixelBandwidth": 2230,
  "ProcedureStepDescription": "CBU^Neuroimaging",
  "ProtocolName": "CBU_DWEPI_BOLD210",
  "PulseSequenceDetails": "%SiemensSeq%\\ep2d_bold",
  "ReceiveCoilName": "HeadMatrix",
  "ReconMatrixPE": 64,
  "RepetitionTime": 2,
  "SAR": 0.136455,
  "ScanOptions": "FS",
  "ScanningSequence": "EP",
  "SequenceName": "*epfid2d1_64",
  "SequenceVariant": "SK",
  "SeriesDescription": "CBU_DWEPI_BOLD210",
  "SeriesNumber": 6,
  "ShimSetting": [-7659, -8651, -2413, 982, 721, 682, -645, 57],
  "SliceThickness": 3,
  "SliceTiming": [0, 1.0325, 0.06, 1.095, 0.12, 1.155, 0.1825, 1.215, 0.2425, 1.2775, 0.3025, 1.3375, 0.365, 1.3975, 0.425, 1.46, 0.485, 1.52, 0.5475, 1.58, 0.6075, 1.6425, 0.6675, 1.7025, 0.73, 1.7625, 0.79, 1.825, 0.85, 1.885, 0.9125, 1.945, 0.9725],
  "SoftwareVersions": "syngo MR B15",
  "SpacingBetweenSlices": 3.9,
  "StationName": "MRC35119",
  "TaskName": "faceprocessing",
  "TotalReadoutTime": 0.0321303,
  "TxRefAmp": 297.418,
  "dcmmeta_affine": [
    [-3.0, 0.0, 0.0, 100.06779479980469],
    [0.0, 2.7320520877838135, -1.6111055612564087, -53.22117614746094],
    [0.0, 1.2393120527267456, 3.5516676902770996, -73.49205780029297],
    [0.0, 0.0, 0.0, 1.0]
],
  "dcmmeta_reorient_transform": [
    [0.0, -1.0, 0.0, 63.0],
    [1.0, 0.0, 0.0, 0.0],
    [0.0, 0.0, 1.0, 0.0],
    [0.0, 0.0, 0.0, 1.0]
],
  "dcmmeta_shape": [64, 64, 33, 210],
  "dcmmeta_slice_dim": 2,
  "dcmmeta_version": 0.6,
  "global": {
    "const": {
      "AcquisitionMatrix": [64, 0, 0, 64],
      "AngioFlag": "N",
      "BitsAllocated": 16,
      "BitsStored": 12,
      "Columns": 384,
      "EchoNumbers": 1,
      "EchoTime": 30.0,
      "EchoTrainLength": 1,
      "FlipAngle": 78.0,
      "HighBit": 11,
      "ImageOrientationPatient": [1.0, 0.0, 0.0, 0.0, 0.910684, -0.413104],
      "ImagePositionPatient": [-580.067797, -556.02642, 202.874516],
      "ImageType": [
        "ORIGINAL",
        "PRIMARY",
        "M",
        "ND",
        "MOSAIC"
],
      "ImagedNucleus": "1H",
      "ImagingFrequency": 123.252093,
      "InPlanePhaseEncodingDirection": "COL",
      "MRAcquisitionType": "2D",
      "MagneticFieldStrength": 3.0,
      "Manufacturer": "SIEMENS",
      "ManufacturerModelName": "TrioTim",
      "Modality": "MR",
      "NumberOfAverages": 1.0,
      "NumberOfPhaseEncodingSteps": 64,
      "PercentPhaseFieldOfView": 100.0,
      "PercentSampling": 100.0,
      "PerformedProcedureStepStartTime": "164906.828000",
      "PhotometricInterpretation": "MONOCHROME2",
      "PixelAspectRatio": [1, 1],
      "PixelBandwidth": 2230.0,
      "PixelRepresentation": 0,
      "PixelSpacing": [3.0, 3.0],
      "ProtocolName": "CBU_DWEPI_BOLD210",
      "RepetitionTime": 2000.0,
      "Rows": 384,
      "SAR": 0.136455,
      "SamplesPerPixel": 1,
      "ScanOptions": "FS",
      "ScanningSequence": "EP",
      "SequenceName": "*epfid2d1_64",
      "SequenceVariant": "SK",
      "SeriesDescription": "CBU_DWEPI_BOLD210",
      "SeriesNumber": 6,
      "SeriesTime": "172102.328000",
      "SliceLocation": -44.94247,
      "SliceThickness": 3.0,
      "SmallestImagePixelValue": 0,
      "SoftwareVersions": "syngo MR B15",
      "SpacingBetweenSlices": 3.9,
      "SpecificCharacterSet": "ISO_IR 100",
      "StudyID": "1",
      "StudyTime": "164906.781000",
      "TransmitCoilName": "Body",
      "VariableFlipAngleFlag": "N",
      "WindowCenterWidthExplanation": "Algo1",
      "dBdt": 0.0},
    "slices": {}
  },
  "time": {
    "samples": {
      "AcquisitionNumber": [1, 2, 3, 4, 5, 6, 7, 8, 9, 10, 11, 12, 13, 14, 15, 16, 17, 18, 19, 20, 21, 22, 23, 24, 25, 26, 27, 28, 29, 30, 31, 32, 33, 34, 35, 36, 37, 38, 39, 40, 41, 42, 43, 44, 45, 46, 47, 48, 49, 50, 51, 52, 53, 54, 55, 56, 57, 58, 59, 60, 61, 62, 63, 64, 65, 66, 67, 68, 69, 70, 71, 72, 73, 74, 75, 76, 77, 78, 79, 80, 81, 82, 83, 84, 85, 86, 87, 88, 89, 90, 91, 92, 93, 94, 95, 96, 97, 98, 99, 100, 101, 102, 103, 104, 105, 106, 107, 108, 109, 110, 111, 112, 113, 114, 115, 116, 117, 118, 119, 120, 121, 122, 123, 124, 125, 126, 127, 128, 129, 130, 131, 132, 133, 134, 135, 136, 137, 138, 139, 140, 141, 142, 143, 144, 145, 146, 147, 148, 149, 150, 151, 152, 153, 154, 155, 156, 157, 158, 159, 160, 161, 162, 163, 164, 165, 166, 167, 168, 169, 170, 171, 172, 173, 174, 175, 176, 177, 178, 179, 180, 181, 182, 183, 184, 185, 186, 187, 188, 189, 190, 191, 192, 193, 194, 195, 196, 197, 198, 199, 200, 201, 202, 203, 204, 205, 206, 207, 208, 209, 210],
      "AcquisitionTime": ["172058.660000", "172100.667500", "172102.675000", "172104.682500", "172106.690000", "172108.700000", "172110.707500", "172112.715000", "172114.722500", "172116.730000", "172118.740000", "172120.747500", "172122.755000", "172124.762500", "172126.772500", "172128.780000", "172130.787500", "172132.795000", "172134.802500", "172136.812500", "172138.820000", "172140.827500", "172142.835000", "172144.842500", "172146.852500", "172148.860000", "172150.867500", "172152.875000", "172154.882500", "172156.892500", "172158.900000", "172200.907500", "172202.915000", "172204.925000", "172206.932500", "172208.940000", "172210.947500", "172212.955000", "172214.965000", "172216.972500", "172218.980000", "172220.987500", "172222.995000", "172225.005000", "172227.012500", "172229.020000", "172231.027500", "172233.037500", "172235.045000", "172237.052500", "172239.060000", "172241.067500", "172243.077500", "172245.085000", "172247.092500", "172249.100000", "172251.107500", "172253.117500", "172255.125000", "172257.132500", "172259.140000", "172301.150000", "172303.157500", "172305.165000", "172307.172500", "172309.180000", "172311.190000", "172313.197500", "172315.205000", "172317.212500", "172319.220000", "172321.230000", "172323.237500", "172325.245000", "172327.252500", "172329.260000", "172331.270000", "172333.277500", "172335.285000", "172337.292500", "172339.302500", "172341.310000", "172343.317500", "172345.325000", "172347.332500", "172349.342500", "172351.350000", "172353.357500", "172355.365000", "172357.372500", "172359.382500", "172401.390000", "172403.397500", "172405.405000", "172407.415000", "172409.422500", "172411.430000", "172413.437500", "172415.445000", "172417.455000", "172419.462500", "172421.470000", "172423.477500", "172425.485000", "172427.495000", "172429.502500", "172431.510000", "172433.517500", "172435.527500", "172437.535000", "172439.542500", "172441.550000", "172443.557500", "172445.567500", "172447.575000", "172449.582500", "172451.590000", "172453.597500", "172455.607500", "172457.615000", "172459.622500", "172501.630000", "172503.640000", "172505.647500", "172507.655000", "172509.662500", "172511.670000", "172513.680000", "172515.687500", "172517.695000", "172519.702500", "172521.710000", "172523.720000", "172525.727500", "172527.735000", "172529.742500", "172531.750000", "172533.760000", "172535.767500", "172537.775000", "172539.782500", "172541.792500", "172543.800000", "172545.807500", "172547.815000", "172549.822500", "172551.832500", "172553.840000", "172555.847500", "172557.855000", "172559.862500", "172601.872500", "172603.880000", "172605.887500", "172607.895000", "172609.905000", "172611.912500", "172613.920000", "172615.927500", "172617.935000", "172619.945000", "172621.952500", "172623.960000", "172625.967500", "172627.975000", "172629.985000", "172631.992500", "172634.000000", "172636.007500", "172638.017500", "172640.025000", "172642.032500", "172644.040000", "172646.047500", "172648.057500", "172650.065000", "172652.072500", "172654.080000", "172656.087500", "172658.097500", "172700.105000", "172702.112500", "172704.120000", "172706.127500", "172708.137500", "172710.145000", "172712.152500", "172714.160000", "172716.170000", "172718.177500", "172720.185000", "172722.192500", "172724.200000", "172726.210000", "172728.217500", "172730.225000", "172732.232500", "172734.240000", "172736.250000", "172738.257500", "172740.265000", "172742.272500", "172744.282500", "172746.290000", "172748.297500", "172750.305000", "172752.312500", "172754.322500", "172756.330000", "172758.337500"],
      "ContentTime": ["172102.328000", "172104.328000", "172106.328000", "172108.328000", "172110.328000", "172112.328000", "172114.328000", "172116.328000", "172118.328000", "172120.328000", "172122.328000", "172124.328000", "172126.328000", "172128.328000", "172130.328000", "172132.328000", "172134.328000", "172136.328000", "172138.328000", "172140.328000", "172142.328000", "172144.328000", "172146.328000", "172148.328000", "172150.328000", "172152.328000", "172154.328000", "172156.328000", "172158.328000", "172200.328000", "172202.328000", "172204.328000", "172206.328000", "172208.328000", "172210.328000", "172212.328000", "172214.328000", "172216.328000", "172218.328000", "172220.328000", "172222.328000", "172224.328000", "172226.328000", "172228.328000", "172230.328000", "172232.328000", "172234.328000", "172236.328000", "172238.328000", "172240.328000", "172242.328000", "172244.328000", "172246.328000", "172248.328000", "172250.328000", "172252.328000", "172254.328000", "172256.328000", "172258.328000", "172300.328000", "172302.328000", "172304.328000", "172306.328000", "172308.328000", "172310.328000", "172312.328000", "172314.328000", "172316.328000", "172318.328000", "172320.328000", "172322.328000", "172324.328000", "172326.328000", "172328.328000", "172330.328000", "172332.328000", "172334.328000", "172336.328000", "172338.328000", "172340.328000", "172342.328000", "172344.328000", "172346.328000", "172348.328000", "172350.328000", "172352.328000", "172354.328000", "172356.328000", "172358.328000", "172400.328000", "172402.328000", "172404.328000", "172406.328000", "172408.328000", "172410.328000", "172412.328000", "172414.328000", "172416.328000", "172418.328000", "172420.328000", "172422.328000", "172424.328000", "172426.328000", "172428.328000", "172430.328000", "172432.328000", "172434.328000", "172436.328000", "172438.328000", "172440.328000", "172442.328000", "172444.328000", "172446.328000", "172448.328000", "172450.328000", "172452.328000", "172454.328000", "172456.328000", "172458.328000", "172500.328000", "172502.328000", "172504.328000", "172506.328000", "172508.328000", "172510.328000", "172512.328000", "172514.328000", "172516.328000", "172518.328000", "172520.328000", "172522.328000", "172524.328000", "172526.328000", "172528.328000", "172530.328000", "172532.328000", "172534.328000", "172536.328000", "172538.328000", "172540.328000", "172542.328000", "172544.328000", "172546.328000", "172548.328000", "172550.328000", "172552.328000", "172554.328000", "172556.328000", "172558.328000", "172600.328000", "172602.328000", "172604.328000", "172606.328000", "172608.328000", "172610.328000", "172612.328000", "172614.328000", "172616.328000", "172618.328000", "172620.328000", "172622.328000", "172624.328000", "172626.328000", "172628.328000", "172630.328000", "172632.328000", "172634.328000", "172636.328000", "172638.328000", "172640.328000", "172642.328000", "172644.328000", "172646.328000", "172648.328000", "172650.328000", "172652.328000", "172654.328000", "172656.328000", "172658.328000", "172700.328000", "172702.328000", "172704.328000", "172706.328000", "172708.328000", "172710.328000", "172712.328000", "172714.328000", "172716.328000", "172718.328000", "172720.328000", "172722.328000", "172724.328000", "172726.328000", "172728.328000", "172730.328000", "172732.328000", "172734.328000", "172736.328000", "172738.328000", "172740.328000", "172742.328000", "172744.328000", "172746.328000", "172748.328000", "172750.328000", "172752.328000", "172754.328000", "172756.328000", "172758.328000", "172800.093000"],
      "InstanceCreationTime": ["172102.328000", "172104.328000", "172106.328000", "172108.328000", "172110.328000", "172112.328000", "172114.328000", "172116.328000", "172118.328000", "172120.328000", "172122.328000", "172124.328000", "172126.328000", "172128.328000", "172130.328000", "172132.328000", "172134.328000", "172136.328000", "172138.328000", "172140.328000", "172142.328000", "172144.328000", "172146.328000", "172148.328000", "172150.328000", "172152.328000", "172154.328000", "172156.328000", "172158.328000", "172200.328000", "172202.328000", "172204.328000", "172206.328000", "172208.328000", "172210.328000", "172212.328000", "172214.328000", "172216.328000", "172218.328000", "172220.328000", "172222.328000", "172224.328000", "172226.328000", "172228.328000", "172230.328000", "172232.328000", "172234.328000", "172236.328000", "172238.328000", "172240.328000", "172242.328000", "172244.328000", "172246.328000", "172248.328000", "172250.328000", "172252.328000", "172254.328000", "172256.328000", "172258.328000", "172300.328000", "172302.328000", "172304.328000", "172306.328000", "172308.328000", "172310.328000", "172312.328000", "172314.328000", "172316.328000", "172318.328000", "172320.328000", "172322.328000", "172324.328000", "172326.328000", "172328.328000", "172330.328000", "172332.328000", "172334.328000", "172336.328000", "172338.328000", "172340.328000", "172342.328000", "172344.328000", "172346.328000", "172348.328000", "172350.328000", "172352.328000", "172354.328000", "172356.328000", "172358.328000", "172400.328000", "172402.328000", "172404.328000", "172406.328000", "172408.328000", "172410.328000", "172412.328000", "172414.328000", "172416.328000", "172418.328000", "172420.328000", "172422.328000", "172424.328000", "172426.328000", "172428.328000", "172430.328000", "172432.328000", "172434.328000", "172436.328000", "172438.328000", "172440.328000", "172442.328000", "172444.328000", "172446.328000", "172448.328000", "172450.328000", "172452.328000", "172454.328000", "172456.328000", "172458.328000", "172500.328000", "172502.328000", "172504.328000", "172506.328000", "172508.328000", "172510.328000", "172512.328000", "172514.328000", "172516.328000", "172518.328000", "172520.328000", "172522.328000", "172524.328000", "172526.328000", "172528.328000", "172530.328000", "172532.328000", "172534.328000", "172536.328000", "172538.328000", "172540.328000", "172542.328000", "172544.328000", "172546.328000", "172548.328000", "172550.328000", "172552.328000", "172554.328000", "172556.328000", "172558.328000", "172600.328000", "172602.328000", "172604.328000", "172606.328000", "172608.328000", "172610.328000", "172612.328000", "172614.328000", "172616.328000", "172618.328000", "172620.328000", "172622.328000", "172624.328000", "172626.328000", "172628.328000", "172630.328000", "172632.328000", "172634.328000", "172636.328000", "172638.328000", "172640.328000", "172642.328000", "172644.328000", "172646.328000", "172648.328000", "172650.328000", "172652.328000", "172654.328000", "172656.328000", "172658.328000", "172700.328000", "172702.328000", "172704.328000", "172706.328000", "172708.328000", "172710.328000", "172712.328000", "172714.328000", "172716.328000", "172718.328000", "172720.328000", "172722.328000", "172724.328000", "172726.328000", "172728.328000", "172730.328000", "172732.328000", "172734.328000", "172736.328000", "172738.328000", "172740.328000", "172742.328000", "172744.328000", "172746.328000", "172748.328000", "172750.328000", "172752.328000", "172754.328000", "172756.328000", "172758.328000", "172800.093000"],
      "InstanceNumber": [1, 2, 3, 4, 5, 6, 7, 8, 9, 10, 11, 12, 13, 14, 15, 16, 17, 18, 19, 20, 21, 22, 23, 24, 25, 26, 27, 28, 29, 30, 31, 32, 33, 34, 35, 36, 37, 38, 39, 40, 41, 42, 43, 44, 45, 46, 47, 48, 49, 50, 51, 52, 53, 54, 55, 56, 57, 58, 59, 60, 61, 62, 63, 64, 65, 66, 67, 68, 69, 70, 71, 72, 73, 74, 75, 76, 77, 78, 79, 80, 81, 82, 83, 84, 85, 86, 87, 88, 89, 90, 91, 92, 93, 94, 95, 96, 97, 98, 99, 100, 101, 102, 103, 104, 105, 106, 107, 108, 109, 110, 111, 112, 113, 114, 115, 116, 117, 118, 119, 120, 121, 122, 123, 124, 125, 126, 127, 128, 129, 130, 131, 132, 133, 134, 135, 136, 137, 138, 139, 140, 141, 142, 143, 144, 145, 146, 147, 148, 149, 150, 151, 152, 153, 154, 155, 156, 157, 158, 159, 160, 161, 162, 163, 164, 165, 166, 167, 168, 169, 170, 171, 172, 173, 174, 175, 176, 177, 178, 179, 180, 181, 182, 183, 184, 185, 186, 187, 188, 189, 190, 191, 192, 193, 194, 195, 196, 197, 198, 199, 200, 201, 202, 203, 204, 205, 206, 207, 208, 209, 210],
      "LargestImagePixelValue": [1894, 1808, 1810, 1805, 1802, 1830, 1817, 1830, 1818, 1825, 1805, 1826, 1992, 1810, 1836, 1946, 1822, 1804, 1806, 1806, 1799, 1792, 1828, 1805, 1793, 1798, 1813, 1816, 1798, 1776, 1774, 1783, 1925, 1800, 1798, 1822, 1809, 1802, 1798, 1820, 1790, 1790, 1789, 1784, 1790, 1801, 1792, 1798, 1809, 1788, 1795, 1792, 1817, 1792, 1787, 1843, 1783, 1795, 1793, 1801, 1777, 1786, 1800, 1789, 1773, 1787, 1785, 1791, 1766, 1811, 1772, 1870, 1762, 1796, 1774, 1870, 1826, 1779, 1763, 1769, 1866, 1778, 1772, 1784, 1763, 1897, 1922, 1762, 1786, 1767, 1862, 1786, 1778, 1861, 1773, 1843, 1942, 1778, 1796, 1753, 1763, 1750, 1757, 1755, 1772, 1775, 1752, 1771, 1778, 1846, 1764, 1863, 1743, 1815, 1751, 1780, 1772, 1813, 1934, 1980, 1766, 1785, 1766, 1755, 1751, 1961, 1930, 1768, 1761, 1740, 1810, 1919, 1743, 1779, 1784, 1796, 1758, 1752, 1760, 1764, 1800, 1818, 1759, 2007, 2082, 1761, 1761, 1804, 1791, 1845, 1855, 1864, 1793, 1853, 1838, 1762, 1985, 2049, 1812, 1770, 1749, 1772, 1822, 1872, 1813, 1770, 1887, 1921, 1775, 1758, 1921, 1877, 1753, 1828, 1771, 1891, 1962, 1763, 1772, 1783, 1784, 1926, 1814, 1792, 1801, 1825, 1878, 1806, 1815, 1815, 1793, 1978, 1802, 1789, 1796, 1795, 1805, 1773, 1803, 1800, 1795, 1800, 1869, 1806, 2042, 1877, 1823, 1806, 1966, 2062],
      "WindowCenter": [759.0, 757.0, 758.0, 758.0, 761.0, 764.0, 762.0, 761.0, 761.0, 761.0, 761.0, 760.0, 761.0, 760.0, 760.0, 760.0, 758.0, 759.0, 759.0, 758.0, 758.0, 758.0, 758.0, 757.0, 757.0, 758.0, 758.0, 757.0, 757.0, 757.0, 758.0, 759.0, 760.0, 759.0, 759.0, 758.0, 759.0, 760.0, 760.0, 758.0, 758.0, 760.0, 761.0, 759.0, 758.0, 757.0, 758.0, 759.0, 759.0, 758.0, 758.0, 759.0, 759.0, 759.0, 758.0, 759.0, 759.0, 760.0, 760.0, 759.0, 759.0, 759.0, 759.0, 758.0, 758.0, 757.0, 758.0, 760.0, 760.0, 760.0, 758.0, 758.0, 759.0, 761.0, 760.0, 759.0, 756.0, 756.0, 757.0, 757.0, 757.0, 758.0, 759.0, 761.0, 761.0, 758.0, 757.0, 759.0, 761.0, 758.0, 759.0, 758.0, 760.0, 764.0, 763.0, 759.0, 758.0, 756.0, 756.0, 756.0, 757.0, 756.0, 756.0, 757.0, 758.0, 760.0, 760.0, 761.0, 762.0, 761.0, 759.0, 758.0, 756.0, 756.0, 757.0, 759.0, 762.0, 761.0, 759.0, 758.0, 759.0, 762.0, 761.0, 759.0, 760.0, 759.0, 760.0, 761.0, 760.0, 758.0, 758.0, 758.0, 758.0, 758.0, 757.0, 758.0, 758.0, 759.0, 761.0, 760.0, 761.0, 765.0, 764.0, 762.0, 759.0, 757.0, 757.0, 761.0, 762.0, 760.0, 758.0, 757.0, 758.0, 763.0, 762.0, 760.0, 759.0, 758.0, 757.0, 758.0, 760.0, 762.0, 761.0, 760.0, 761.0, 762.0, 761.0, 760.0, 761.0, 762.0, 761.0, 759.0, 760.0, 763.0, 763.0, 760.0, 758.0, 757.0, 760.0, 761.0, 760.0, 760.0, 759.0, 761.0, 761.0, 760.0, 759.0, 758.0, 760.0, 761.0, 758.0, 758.0, 760.0, 761.0, 761.0, 762.0, 762.0, 760.0, 758.0, 758.0, 759.0, 762.0, 768.0, 764.0, 761.0, 759.0, 760.0, 761.0, 759.0, 759.0],
      "WindowWidth": [1610.0, 1604.0, 1605.0, 1605.0, 1615.0, 1622.0, 1615.0, 1613.0, 1613.0, 1614.0, 1612.0, 1611.0, 1613.0, 1611.0, 1610.0, 1610.0, 1607.0, 1608.0, 1608.0, 1606.0, 1606.0, 1606.0, 1604.0, 1604.0, 1604.0, 1605.0, 1606.0, 1603.0, 1603.0, 1602.0, 1606.0, 1609.0, 1610.0, 1609.0, 1608.0, 1606.0, 1607.0, 1610.0, 1611.0, 1606.0, 1605.0, 1611.0, 1613.0, 1607.0, 1604.0, 1603.0, 1606.0, 1609.0, 1608.0, 1606.0, 1605.0, 1608.0, 1608.0, 1608.0, 1606.0, 1608.0, 1607.0, 1609.0, 1610.0, 1608.0, 1607.0, 1608.0, 1608.0, 1606.0, 1604.0, 1602.0, 1606.0, 1610.0, 1611.0, 1610.0, 1604.0, 1605.0, 1608.0, 1613.0, 1611.0, 1607.0, 1601.0, 1601.0, 1603.0, 1604.0, 1603.0, 1605.0, 1609.0, 1612.0, 1612.0, 1605.0, 1604.0, 1607.0, 1612.0, 1605.0, 1607.0, 1605.0, 1610.0, 1620.0, 1616.0, 1606.0, 1605.0, 1601.0, 1601.0, 1601.0, 1602.0, 1600.0, 1601.0, 1603.0, 1606.0, 1610.0, 1609.0, 1613.0, 1616.0, 1611.0, 1606.0, 1604.0, 1601.0, 1601.0, 1602.0, 1607.0, 1615.0, 1613.0, 1607.0, 1606.0, 1608.0, 1614.0, 1613.0, 1608.0, 1611.0, 1609.0, 1611.0, 1613.0, 1610.0, 1605.0, 1604.0, 1605.0, 1606.0, 1605.0, 1603.0, 1605.0, 1606.0, 1608.0, 1612.0, 1609.0, 1613.0, 1622.0, 1619.0, 1615.0, 1607.0, 1602.0, 1604.0, 1613.0, 1616.0, 1609.0, 1605.0, 1603.0, 1605.0, 1618.0, 1615.0, 1610.0, 1607.0, 1605.0, 1602.0, 1605.0, 1611.0, 1615.0, 1613.0, 1609.0, 1614.0, 1614.0, 1612.0, 1611.0, 1613.0, 1615.0, 1612.0, 1607.0, 1610.0, 1618.0, 1616.0, 1610.0, 1606.0, 1604.0, 1609.0, 1613.0, 1610.0, 1609.0, 1608.0, 1613.0, 1611.0, 1609.0, 1606.0, 1607.0, 1610.0, 1612.0, 1604.0, 1607.0, 1610.0, 1612.0, 1612.0, 1616.0, 1614.0, 1610.0, 1605.0, 1605.0, 1608.0, 1615.0, 1632.0, 1619.0, 1613.0, 1608.0, 1611.0, 1613.0, 1609.0, 1608.0]
    },
    "slices": {}
  }
}