{
  "AcquisitionMatrixPE": 64,
  "AcquisitionNumber": 1,
  "AcquisitionTime": "17:59:45.445000",
  "BandwidthPerPixelPhaseEncode": 30.637,
  "BaseResolution": 64,
  "BidsGuess": [
    "func",
    "_acq-epfid2_dir-AP_run-11_bold"
],
  "CoilCombinationMethod": "Sum of Squares",
  "CoilString": "C:HEA;HEP",
  "ConversionSoftware": "dcm2niix",
  "ConversionSoftwareVersion": "v1.0.20240202",
  "DerivedVendorReportedEchoSpacing": 0.000510004,
  "DeviceSerialNumber": "35119",
  "DwellTime": 3.5e-06,
  "EchoTime": 0.03,
  "EffectiveEchoSpacing": 0.000510004,
  "FlipAngle": 78,
  "HeudiconvVersion": "1.1.6",
  "ImageComments": "V",
  "ImageOrientationPatientDICOM": [1, 0, 0, 0, 0.910684, -0.413104],
  "ImageOrientationText": "Tra>Cor(-24.4)",
  "ImageType": [
    "ORIGINAL",
    "PRIMARY",
    "M",
    "ND",
    "MOSAIC"
],
  "ImagingFrequency": 123.252093,
  "InPlanePhaseEncodingDirectionDICOM": "COL",
  "InstitutionAddress": "Chaucer Road  15,Cambridge,UK,GB,CB2 2EF",
  "InstitutionName": "MRC-CBU",
  "MRAcquisitionType": "2D",
  "MagneticFieldStrength": 3,
  "Manufacturer": "Siemens",
  "ManufacturersModelName": "TrioTim",
  "MatrixCoilMode": "SENSE",
  "Modality": "MR",
  "NonlinearGradientCorrection": false,
  "PartialFourier": 1,
  "PatientPosition": "HFS",
  "PercentPhaseFOV": 100,
  "PercentSampling": 100,
  "PhaseEncodingDirection": "j-",
  "PhaseEncodingSteps": 64,
  "PhaseResolution": 1,
  "PixelBandwidth": 2230,
  "ProcedureStepDescription": "CBU^Neuroimaging",
  "ProtocolName": "CBU_DWEPI_BOLD210",
  "PulseSequenceDetails": "%SiemensSeq%\\ep2d_bold",
  "ReceiveCoilName": "HeadMatrix",
  "ReconMatrixPE": 64,
  "RepetitionTime": 2,
  "SAR": 0.136455,
  "ScanOptions": "FS",
  "ScanningSequence": "EP",
  "SequenceName": "*epfid2d1_64",
  "SequenceVariant": "SK",
  "SeriesDescription": "CBU_DWEPI_BOLD210",
  "SeriesNumber": 11,
  "ShimSetting": [-7659, -8651, -2413, 982, 721, 682, -645, 57],
  "SliceThickness": 3,
  "SliceTiming": [0, 1.035, 0.06, 1.095, 0.1225, 1.155, 0.1825, 1.2175, 0.2425, 1.2775, 0.305, 1.3375, 0.365, 1.4, 0.425, 1.46, 0.4875, 1.52, 0.5475, 1.5825, 0.6075, 1.6425, 0.67, 1.7025, 0.73, 1.765, 0.79, 1.825, 0.8525, 1.885, 0.9125, 1.9475, 0.9725],
  "SoftwareVersions": "syngo MR B15",
  "SpacingBetweenSlices": 3.9,
  "StationName": "MRC35119",
  "TaskName": "faceprocessing",
  "TotalReadoutTime": 0.0321303,
  "TxRefAmp": 297.418,
  "dcmmeta_affine": [
    [-3.0, 0.0, 0.0, 100.06779479980469],
    [0.0, 2.7320520877838135, -1.6111055612564087, -53.22117614746094],
    [0.0, 1.2393120527267456, 3.5516676902770996, -73.49205780029297],
    [0.0, 0.0, 0.0, 1.0]
],
  "dcmmeta_reorient_transform": [
    [0.0, -1.0, 0.0, 63.0],
    [1.0, 0.0, 0.0, 0.0],
    [0.0, 0.0, 1.0, 0.0],
    [0.0, 0.0, 0.0, 1.0]
],
  "dcmmeta_shape": [64, 64, 33, 210],
  "dcmmeta_slice_dim": 2,
  "dcmmeta_version": 0.6,
  "global": {
    "const": {
      "AcquisitionMatrix": [64, 0, 0, 64],
      "AngioFlag": "N",
      "BitsAllocated": 16,
      "BitsStored": 12,
      "Columns": 384,
      "EchoNumbers": 1,
      "EchoTime": 30.0,
      "EchoTrainLength": 1,
      "FlipAngle": 78.0,
      "HighBit": 11,
      "ImageOrientationPatient": [1.0, 0.0, 0.0, 0.0, 0.910684, -0.413104],
      "ImagePositionPatient": [-580.067797, -556.02642, 202.874516],
      "ImageType": [
        "ORIGINAL",
        "PRIMARY",
        "M",
        "ND",
        "MOSAIC"
],
      "ImagedNucleus": "1H",
      "ImagingFrequency": 123.252093,
      "InPlanePhaseEncodingDirection": "COL",
      "MRAcquisitionType": "2D",
      "MagneticFieldStrength": 3.0,
      "Manufacturer": "SIEMENS",
      "ManufacturerModelName": "TrioTim",
      "Modality": "MR",
      "NumberOfAverages": 1.0,
      "NumberOfPhaseEncodingSteps": 64,
      "PercentPhaseFieldOfView": 100.0,
      "PercentSampling": 100.0,
      "PerformedProcedureStepStartTime": "164906.828000",
      "PhotometricInterpretation": "MONOCHROME2",
      "PixelAspectRatio": [1, 1],
      "PixelBandwidth": 2230.0,
      "PixelRepresentation": 0,
      "PixelSpacing": [3.0, 3.0],
      "ProtocolName": "CBU_DWEPI_BOLD210",
      "RepetitionTime": 2000.0,
      "Rows": 384,
      "SAR": 0.136455,
      "SamplesPerPixel": 1,
      "ScanOptions": "FS",
      "ScanningSequence": "EP",
      "SequenceName": "*epfid2d1_64",
      "SequenceVariant": "SK",
      "SeriesDescription": "CBU_DWEPI_BOLD210",
      "SeriesNumber": 11,
      "SeriesTime": "175949.156000",
      "SliceLocation": -44.94247,
      "SliceThickness": 3.0,
      "SmallestImagePixelValue": 0,
      "SoftwareVersions": "syngo MR B15",
      "SpacingBetweenSlices": 3.9,
      "SpecificCharacterSet": "ISO_IR 100",
      "StudyID": "1",
      "StudyTime": "164906.781000",
      "TransmitCoilName": "Body",
      "VariableFlipAngleFlag": "N",
      "WindowCenterWidthExplanation": "Algo1",
      "dBdt": 0.0},
    "slices": {}
  },
  "time": {
    "samples": {
      "AcquisitionNumber": [1, 2, 3, 4, 5, 6, 7, 8, 9, 10, 11, 12, 13, 14, 15, 16, 17, 18, 19, 20, 21, 22, 23, 24, 25, 26, 27, 28, 29, 30, 31, 32, 33, 34, 35, 36, 37, 38, 39, 40, 41, 42, 43, 44, 45, 46, 47, 48, 49, 50, 51, 52, 53, 54, 55, 56, 57, 58, 59, 60, 61, 62, 63, 64, 65, 66, 67, 68, 69, 70, 71, 72, 73, 74, 75, 76, 77, 78, 79, 80, 81, 82, 83, 84, 85, 86, 87, 88, 89, 90, 91, 92, 93, 94, 95, 96, 97, 98, 99, 100, 101, 102, 103, 104, 105, 106, 107, 108, 109, 110, 111, 112, 113, 114, 115, 116, 117, 118, 119, 120, 121, 122, 123, 124, 125, 126, 127, 128, 129, 130, 131, 132, 133, 134, 135, 136, 137, 138, 139, 140, 141, 142, 143, 144, 145, 146, 147, 148, 149, 150, 151, 152, 153, 154, 155, 156, 157, 158, 159, 160, 161, 162, 163, 164, 165, 166, 167, 168, 169, 170, 171, 172, 173, 174, 175, 176, 177, 178, 179, 180, 181, 182, 183, 184, 185, 186, 187, 188, 189, 190, 191, 192, 193, 194, 195, 196, 197, 198, 199, 200, 201, 202, 203, 204, 205, 206, 207, 208, 209, 210],
      "AcquisitionTime": ["175945.445000", "175947.452500", "175949.462500", "175951.470000", "175953.477500", "175955.485000", "175957.492500", "175959.502500", "180001.510000", "180003.517500", "180005.525000", "180007.532500", "180009.542500", "180011.550000", "180013.557500", "180015.565000", "180017.575000", "180019.582500", "180021.590000", "180023.597500", "180025.605000", "180027.615000", "180029.622500", "180031.630000", "180033.637500", "180035.645000", "180037.655000", "180039.662500", "180041.670000", "180043.677500", "180045.687500", "180047.695000", "180049.702500", "180051.710000", "180053.717500", "180055.727500", "180057.735000", "180059.742500", "180101.750000", "180103.757500", "180105.767500", "180107.775000", "180109.782500", "180111.790000", "180113.797500", "180115.807500", "180117.815000", "180119.822500", "180121.830000", "180123.840000", "180125.847500", "180127.855000", "180129.862500", "180131.870000", "180133.880000", "180135.887500", "180137.895000", "180139.902500", "180141.910000", "180143.920000", "180145.927500", "180147.935000", "180149.942500", "180151.952500", "180153.960000", "180155.967500", "180157.975000", "180159.982500", "180201.992500", "180204.000000", "180206.007500", "180208.015000", "180210.022500", "180212.032500", "180214.040000", "180216.047500", "180218.055000", "180220.065000", "180222.072500", "180224.080000", "180226.087500", "180228.095000", "180230.105000", "180232.112500", "180234.120000", "180236.127500", "180238.135000", "180240.145000", "180242.152500", "180244.160000", "180246.167500", "180248.177500", "180250.185000", "180252.192500", "180254.200000", "180256.207500", "180258.217500", "180300.225000", "180302.232500", "180304.240000", "180306.247500", "180308.257500", "180310.265000", "180312.272500", "180314.280000", "180316.287500", "180318.297500", "180320.305000", "180322.312500", "180324.320000", "180326.330000", "180328.337500", "180330.345000", "180332.352500", "180334.360000", "180336.370000", "180338.377500", "180340.385000", "180342.392500", "180344.400000", "180346.410000", "180348.417500", "180350.425000", "180352.432500", "180354.442500", "180356.450000", "180358.457500", "180400.465000", "180402.472500", "180404.482500", "180406.490000", "180408.497500", "180410.505000", "180412.512500", "180414.522500", "180416.530000", "180418.537500", "180420.545000", "180422.555000", "180424.562500", "180426.570000", "180428.577500", "180430.585000", "180432.595000", "180434.602500", "180436.610000", "180438.617500", "180440.625000", "180442.635000", "180444.642500", "180446.650000", "180448.657500", "180450.665000", "180452.675000", "180454.682500", "180456.690000", "180458.697500", "180500.707500", "180502.715000", "180504.722500", "180506.730000", "180508.737500", "180510.747500", "180512.755000", "180514.762500", "180516.770000", "180518.777500", "180520.787500", "180522.795000", "180524.802500", "180526.810000", "180528.820000", "180530.827500", "180532.835000", "180534.842500", "180536.850000", "180538.860000", "180540.867500", "180542.875000", "180544.882500", "180546.890000", "180548.900000", "180550.907500", "180552.915000", "180554.922500", "180556.932500", "180558.940000", "180600.947500", "180602.955000", "180604.962500", "180606.972500", "180608.980000", "180610.987500", "180612.995000", "180615.002500", "180617.012500", "180619.020000", "180621.027500", "180623.035000", "180625.042500", "180627.052500", "180629.060000", "180631.067500", "180633.075000", "180635.085000", "180637.092500", "180639.100000", "180641.107500", "180643.115000", "180645.125000"],
      "ContentTime": ["175949.156000", "175951.140000", "175953.140000", "175955.140000", "175957.140000", "175959.140000", "180001.140000", "180003.140000", "180005.140000", "180007.140000", "180009.140000", "180011.140000", "180013.140000", "180015.140000", "180017.140000", "180019.140000", "180021.140000", "180023.140000", "180025.140000", "180027.140000", "180029.140000", "180031.140000", "180033.140000", "180035.140000", "180037.140000", "180039.140000", "180041.140000", "180043.140000", "180045.140000", "180047.140000", "180049.140000", "180051.140000", "180053.140000", "180055.140000", "180057.140000", "180059.140000", "180101.140000", "180103.140000", "180105.140000", "180107.140000", "180109.140000", "180111.140000", "180113.140000", "180115.140000", "180117.140000", "180119.140000", "180121.140000", "180123.140000", "180125.140000", "180127.140000", "180129.140000", "180131.140000", "180133.140000", "180135.140000", "180137.140000", "180139.140000", "180141.140000", "180143.140000", "180145.140000", "180147.140000", "180149.140000", "180151.140000", "180153.140000", "180155.140000", "180157.140000", "180159.140000", "180201.140000", "180203.140000", "180205.140000", "180207.140000", "180209.140000", "180211.140000", "180213.140000", "180215.140000", "180217.140000", "180219.140000", "180221.140000", "180223.140000", "180225.140000", "180227.140000", "180229.140000", "180231.140000", "180233.140000", "180235.140000", "180237.140000", "180239.140000", "180241.140000", "180243.140000", "180245.140000", "180247.140000", "180249.140000", "180251.140000", "180253.140000", "180255.140000", "180257.140000", "180259.140000", "180301.140000", "180303.140000", "180305.140000", "180307.140000", "180309.140000", "180311.140000", "180313.140000", "180315.140000", "180317.140000", "180319.140000", "180321.140000", "180323.140000", "180325.140000", "180327.140000", "180329.140000", "180331.140000", "180333.140000", "180335.140000", "180337.140000", "180339.140000", "180341.140000", "180343.140000", "180345.140000", "180347.140000", "180349.140000", "180351.140000", "180353.140000", "180355.140000", "180357.140000", "180359.140000", "180401.140000", "180403.140000", "180405.140000", "180407.140000", "180409.140000", "180411.140000", "180413.140000", "180415.140000", "180417.140000", "180419.140000", "180421.140000", "180423.140000", "180425.140000", "180427.140000", "180429.140000", "180431.140000", "180433.140000", "180435.140000", "180437.140000", "180439.140000", "180441.140000", "180443.140000", "180445.140000", "180447.140000", "180449.140000", "180451.140000", "180453.140000", "180455.140000", "180457.140000", "180459.140000", "180501.140000", "180503.140000", "180505.140000", "180507.140000", "180509.140000", "180511.140000", "180513.140000", "180515.140000", "180517.140000", "180519.140000", "180521.140000", "180523.140000", "180525.140000", "180527.140000", "180529.140000", "180531.140000", "180533.140000", "180535.140000", "180537.140000", "180539.140000", "180541.140000", "180543.140000", "180545.140000", "180547.140000", "180549.140000", "180551.140000", "180553.140000", "180555.140000", "180557.140000", "180559.140000", "180601.140000", "180603.140000", "180605.140000", "180607.140000", "180609.140000", "180611.140000", "180613.140000", "180615.140000", "180617.140000", "180619.140000", "180621.140000", "180623.140000", "180625.140000", "180627.140000", "180629.140000", "180631.140000", "180633.140000", "180635.140000", "180637.140000", "180639.140000", "180641.140000", "180643.140000", "180645.140000", "180646.718000"],
      "InstanceCreationTime": ["175949.156000", "175951.140000", "175953.140000", "175955.140000", "175957.140000", "175959.140000", "180001.140000", "180003.140000", "180005.140000", "180007.140000", "180009.140000", "180011.140000", "180013.140000", "180015.140000", "180017.140000", "180019.140000", "180021.140000", "180023.140000", "180025.140000", "180027.140000", "180029.140000", "180031.140000", "180033.140000", "180035.140000", "180037.140000", "180039.140000", "180041.140000", "180043.140000", "180045.140000", "180047.140000", "180049.140000", "180051.140000", "180053.140000", "180055.140000", "180057.140000", "180059.140000", "180101.140000", "180103.140000", "180105.140000", "180107.140000", "180109.140000", "180111.140000", "180113.140000", "180115.140000", "180117.140000", "180119.140000", "180121.140000", "180123.140000", "180125.140000", "180127.140000", "180129.140000", "180131.140000", "180133.140000", "180135.140000", "180137.140000", "180139.140000", "180141.140000", "180143.140000", "180145.140000", "180147.140000", "180149.140000", "180151.140000", "180153.140000", "180155.140000", "180157.140000", "180159.140000", "180201.140000", "180203.140000", "180205.140000", "180207.140000", "180209.140000", "180211.140000", "180213.140000", "180215.140000", "180217.140000", "180219.140000", "180221.140000", "180223.140000", "180225.140000", "180227.140000", "180229.140000", "180231.140000", "180233.140000", "180235.140000", "180237.140000", "180239.140000", "180241.140000", "180243.140000", "180245.140000", "180247.140000", "180249.140000", "180251.140000", "180253.140000", "180255.140000", "180257.140000", "180259.140000", "180301.140000", "180303.140000", "180305.140000", "180307.140000", "180309.140000", "180311.140000", "180313.140000", "180315.140000", "180317.140000", "180319.140000", "180321.140000", "180323.140000", "180325.140000", "180327.140000", "180329.140000", "180331.140000", "180333.140000", "180335.140000", "180337.140000", "180339.140000", "180341.140000", "180343.140000", "180345.140000", "180347.140000", "180349.140000", "180351.140000", "180353.140000", "180355.140000", "180357.140000", "180359.140000", "180401.140000", "180403.140000", "180405.140000", "180407.140000", "180409.140000", "180411.140000", "180413.140000", "180415.140000", "180417.140000", "180419.140000", "180421.140000", "180423.140000", "180425.140000", "180427.140000", "180429.140000", "180431.140000", "180433.140000", "180435.140000", "180437.140000", "180439.140000", "180441.140000", "180443.140000", "180445.140000", "180447.140000", "180449.140000", "180451.140000", "180453.140000", "180455.140000", "180457.140000", "180459.140000", "180501.140000", "180503.140000", "180505.140000", "180507.140000", "180509.140000", "180511.140000", "180513.140000", "180515.140000", "180517.140000", "180519.140000", "180521.140000", "180523.140000", "180525.140000", "180527.140000", "180529.140000", "180531.140000", "180533.140000", "180535.140000", "180537.140000", "180539.140000", "180541.140000", "180543.140000", "180545.140000", "180547.140000", "180549.140000", "180551.140000", "180553.140000", "180555.140000", "180557.140000", "180559.140000", "180601.140000", "180603.140000", "180605.140000", "180607.140000", "180609.140000", "180611.140000", "180613.140000", "180615.140000", "180617.140000", "180619.140000", "180621.140000", "180623.140000", "180625.140000", "180627.140000", "180629.140000", "180631.140000", "180633.140000", "180635.140000", "180637.140000", "180639.140000", "180641.140000", "180643.140000", "180645.140000", "180646.718000"],
      "InstanceNumber": [1, 2, 3, 4, 5, 6, 7, 8, 9, 10, 11, 12, 13, 14, 15, 16, 17, 18, 19, 20, 21, 22, 23, 24, 25, 26, 27, 28, 29, 30, 31, 32, 33, 34, 35, 36, 37, 38, 39, 40, 41, 42, 43, 44, 45, 46, 47, 48, 49, 50, 51, 52, 53, 54, 55, 56, 57, 58, 59, 60, 61, 62, 63, 64, 65, 66, 67, 68, 69, 70, 71, 72, 73, 74, 75, 76, 77, 78, 79, 80, 81, 82, 83, 84, 85, 86, 87, 88, 89, 90, 91, 92, 93, 94, 95, 96, 97, 98, 99, 100, 101, 102, 103, 104, 105, 106, 107, 108, 109, 110, 111, 112, 113, 114, 115, 116, 117, 118, 119, 120, 121, 122, 123, 124, 125, 126, 127, 128, 129, 130, 131, 132, 133, 134, 135, 136, 137, 138, 139, 140, 141, 142, 143, 144, 145, 146, 147, 148, 149, 150, 151, 152, 153, 154, 155, 156, 157, 158, 159, 160, 161, 162, 163, 164, 165, 166, 167, 168, 169, 170, 171, 172, 173, 174, 175, 176, 177, 178, 179, 180, 181, 182, 183, 184, 185, 186, 187, 188, 189, 190, 191, 192, 193, 194, 195, 196, 197, 198, 199, 200, 201, 202, 203, 204, 205, 206, 207, 208, 209, 210],
      "LargestImagePixelValue": [2167, 2124, 1823, 1986, 2017, 1825, 1852, 1826, 1858, 1837, 1856, 1830, 1901, 2082, 1992, 1830, 1838, 1856, 1888, 1854, 1834, 1813, 1971, 1908, 2120, 1859, 1826, 1851, 1895, 1814, 1835, 1946, 1864, 2044, 1817, 1810, 1828, 1850, 1845, 1937, 2048, 2087, 1996, 1821, 1821, 1833, 1858, 2030, 1908, 1853, 1992, 1851, 1999, 1948, 1846, 1878, 2031, 1919, 1847, 1861, 1968, 1874, 1845, 1851, 1879, 1978, 1865, 1841, 2082, 2100, 2090, 2154, 1874, 1896, 1889, 2098, 1946, 1868, 1891, 1901, 1864, 1877, 2034, 1922, 2004, 1981, 1867, 1892, 2120, 1864, 1904, 2099, 1904, 1934, 1973, 1897, 2009, 1879, 1956, 1901, 1888, 1933, 2131, 1901, 1947, 1944, 1874, 1933, 2058, 1942, 1912, 2011, 1905, 1905, 1900, 1854, 1861, 1918, 1988, 1958, 1913, 1896, 1913, 1970, 1916, 2232, 1910, 1899, 1910, 1939, 1912, 1997, 2036, 1894, 1974, 1905, 1952, 1910, 1905, 1911, 1915, 1884, 1907, 2051, 1909, 2099, 1898, 1919, 1963, 1915, 1906, 1908, 2020, 1911, 1924, 1904, 1937, 1911, 1916, 2029, 2135, 1924, 2075, 2072, 1895, 1888, 1924, 1955, 1880, 1907, 1912, 2110, 1949, 1871, 1908, 1911, 1981, 2090, 1918, 1917, 2057, 1931, 1927, 1941, 2031, 1944, 1909, 1921, 2086, 1912, 1932, 2119, 1917, 2008, 1918, 1923, 1912, 1900, 1937, 1919, 1909, 1912, 1914, 1916, 1914, 2025, 1906, 1929, 1906, 1910],
      "WindowCenter": [769.0, 767.0, 765.0, 764.0, 763.0, 762.0, 762.0, 764.0, 765.0, 767.0, 766.0, 765.0, 766.0, 767.0, 766.0, 764.0, 763.0, 763.0, 765.0, 766.0, 765.0, 764.0, 763.0, 763.0, 763.0, 762.0, 762.0, 762.0, 762.0, 763.0, 762.0, 763.0, 762.0, 764.0, 764.0, 763.0, 764.0, 766.0, 768.0, 767.0, 765.0, 764.0, 763.0, 763.0, 764.0, 766.0, 767.0, 765.0, 763.0, 763.0, 763.0, 763.0, 765.0, 764.0, 763.0, 764.0, 765.0, 764.0, 764.0, 764.0, 765.0, 765.0, 763.0, 763.0, 763.0, 763.0, 765.0, 771.0, 769.0, 766.0, 765.0, 765.0, 763.0, 763.0, 763.0, 764.0, 764.0, 764.0, 764.0, 767.0, 768.0, 767.0, 765.0, 764.0, 765.0, 766.0, 766.0, 765.0, 766.0, 764.0, 764.0, 764.0, 763.0, 763.0, 763.0, 764.0, 765.0, 765.0, 764.0, 764.0, 766.0, 766.0, 765.0, 762.0, 763.0, 765.0, 764.0, 764.0, 765.0, 765.0, 764.0, 764.0, 763.0, 764.0, 766.0, 768.0, 768.0, 769.0, 769.0, 766.0, 764.0, 764.0, 763.0, 764.0, 764.0, 763.0, 762.0, 763.0, 765.0, 765.0, 765.0, 765.0, 765.0, 764.0, 764.0, 763.0, 763.0, 765.0, 767.0, 768.0, 766.0, 764.0, 763.0, 764.0, 763.0, 764.0, 764.0, 766.0, 767.0, 765.0, 764.0, 763.0, 763.0, 764.0, 762.0, 763.0, 764.0, 765.0, 765.0, 766.0, 767.0, 766.0, 766.0, 765.0, 764.0, 764.0, 765.0, 765.0, 767.0, 769.0, 768.0, 766.0, 764.0, 765.0, 764.0, 763.0, 764.0, 765.0, 764.0, 764.0, 766.0, 766.0, 766.0, 764.0, 763.0, 763.0, 765.0, 765.0, 765.0, 764.0, 765.0, 765.0, 764.0, 763.0, 762.0, 764.0, 767.0, 767.0, 767.0, 767.0, 765.0, 765.0, 766.0, 766.0, 764.0, 763.0, 764.0, 765.0, 765.0, 764.0],
      "WindowWidth": [1633.0, 1628.0, 1622.0, 1621.0, 1619.0, 1616.0, 1616.0, 1620.0, 1624.0, 1628.0, 1626.0, 1624.0, 1626.0, 1627.0, 1625.0, 1621.0, 1619.0, 1619.0, 1622.0, 1625.0, 1624.0, 1619.0, 1619.0, 1617.0, 1619.0, 1615.0, 1615.0, 1614.0, 1616.0, 1617.0, 1616.0, 1618.0, 1616.0, 1621.0, 1620.0, 1618.0, 1620.0, 1626.0, 1630.0, 1627.0, 1622.0, 1619.0, 1618.0, 1617.0, 1620.0, 1625.0, 1627.0, 1623.0, 1618.0, 1617.0, 1619.0, 1619.0, 1623.0, 1620.0, 1619.0, 1621.0, 1622.0, 1621.0, 1620.0, 1620.0, 1622.0, 1623.0, 1618.0, 1618.0, 1617.0, 1618.0, 1622.0, 1640.0, 1633.0, 1626.0, 1623.0, 1622.0, 1618.0, 1618.0, 1618.0, 1620.0, 1620.0, 1619.0, 1620.0, 1629.0, 1632.0, 1628.0, 1623.0, 1621.0, 1623.0, 1625.0, 1624.0, 1624.0, 1625.0, 1621.0, 1619.0, 1621.0, 1618.0, 1618.0, 1619.0, 1621.0, 1624.0, 1622.0, 1620.0, 1622.0, 1626.0, 1624.0, 1622.0, 1615.0, 1618.0, 1622.0, 1621.0, 1620.0, 1623.0, 1623.0, 1619.0, 1620.0, 1619.0, 1621.0, 1625.0, 1629.0, 1630.0, 1632.0, 1632.0, 1625.0, 1619.0, 1619.0, 1618.0, 1620.0, 1619.0, 1618.0, 1616.0, 1618.0, 1622.0, 1622.0, 1623.0, 1623.0, 1623.0, 1621.0, 1621.0, 1617.0, 1617.0, 1622.0, 1628.0, 1629.0, 1625.0, 1621.0, 1619.0, 1620.0, 1618.0, 1621.0, 1621.0, 1625.0, 1629.0, 1623.0, 1622.0, 1618.0, 1619.0, 1620.0, 1616.0, 1618.0, 1622.0, 1622.0, 1623.0, 1624.0, 1628.0, 1626.0, 1625.0, 1624.0, 1620.0, 1621.0, 1622.0, 1624.0, 1629.0, 1634.0, 1631.0, 1625.0, 1621.0, 1621.0, 1620.0, 1618.0, 1619.0, 1622.0, 1620.0, 1622.0, 1625.0, 1625.0, 1625.0, 1620.0, 1619.0, 1619.0, 1622.0, 1624.0, 1623.0, 1621.0, 1623.0, 1624.0, 1620.0, 1619.0, 1616.0, 1621.0, 1628.0, 1628.0, 1628.0, 1627.0, 1622.0, 1623.0, 1626.0, 1626.0, 1619.0, 1619.0, 1621.0, 1622.0, 1621.0, 1621.0]
    },
    "slices": {}
  }
}