{
  "AcquisitionMatrixPE": 64,
  "AcquisitionNumber": 1,
  "AcquisitionTime": "17:06:13.987500",
  "BandwidthPerPixelPhaseEncode": 30.637,
  "BaseResolution": 64,
  "BidsGuess": [
    "func",
    "_acq-epfid2_dir-AP_run-5_bold"
],
  "CoilCombinationMethod": "Sum of Squares",
  "CoilString": "C:HEA;HEP",
  "ConversionSoftware": "dcm2niix",
  "ConversionSoftwareVersion": "v1.0.20240202",
  "DerivedVendorReportedEchoSpacing": 0.000510004,
  "DeviceSerialNumber": "35119",
  "DwellTime": 3.5e-06,
  "EchoTime": 0.03,
  "EffectiveEchoSpacing": 0.000510004,
  "FlipAngle": 78,
  "HeudiconvVersion": "1.1.6",
  "ImageComments": "V",
  "ImageOrientationPatientDICOM": [1, 0, 0, 0, 0.895712, -0.444635],
  "ImageOrientationText": "Tra>Cor(-26.4)",
  "ImageType": [
    "ORIGINAL",
    "PRIMARY",
    "M",
    "ND",
    "MOSAIC"
],
  "ImagingFrequency": 123.251783,
  "InPlanePhaseEncodingDirectionDICOM": "COL",
  "InstitutionAddress": "Chaucer Road  15,Cambridge,UK,GB,CB2 2EF",
  "InstitutionName": "MRC-CBU",
  "MRAcquisitionType": "2D",
  "MagneticFieldStrength": 3,
  "Manufacturer": "Siemens",
  "ManufacturersModelName": "TrioTim",
  "MatrixCoilMode": "SENSE",
  "Modality": "MR",
  "NonlinearGradientCorrection": false,
  "PartialFourier": 1,
  "PatientPosition": "HFS",
  "PercentPhaseFOV": 100,
  "PercentSampling": 100,
  "PhaseEncodingDirection": "j-",
  "PhaseEncodingSteps": 64,
  "PhaseResolution": 1,
  "PixelBandwidth": 2230,
  "ProcedureStepDescription": "CBU^Neuroimaging",
  "ProtocolName": "CBU_DWEPI_BOLD210",
  "PulseSequenceDetails": "%SiemensSeq%\\ep2d_bold",
  "ReceiveCoilName": "HeadMatrix",
  "ReconMatrixPE": 64,
  "RepetitionTime": 2,
  "SAR": 0.139965,
  "ScanOptions": "FS",
  "ScanningSequence": "EP",
  "SequenceName": "*epfid2d1_64",
  "SequenceVariant": "SK",
  "SeriesDescription": "CBU_DWEPI_BOLD210",
  "SeriesNumber": 5,
  "ShimSetting": [-7803, -8783, -2001, 858, 247, -245, 34, 62],
  "SliceThickness": 3,
  "SliceTiming": [0, 1.035, 0.06, 1.095, 0.1225, 1.155, 0.1825, 1.2175, 0.2425, 1.2775, 0.305, 1.3375, 0.365, 1.4, 0.425, 1.46, 0.4875, 1.52, 0.5475, 1.5825, 0.6075, 1.6425, 0.67, 1.7025, 0.73, 1.765, 0.79, 1.825, 0.8525, 1.885, 0.9125, 1.9475, 0.9725],
  "SoftwareVersions": "syngo MR B15",
  "SpacingBetweenSlices": 3.75,
  "StationName": "MRC35119",
  "TaskName": "faceprocessing",
  "TotalReadoutTime": 0.0321303,
  "TxRefAmp": 328.238,
  "dcmmeta_affine": [
    [-3.0, 0.0, 0.0, 100.56779479980469],
    [0.0, 2.687135934829712, -1.6673812866210938, -47.71282958984375],
    [0.0, 1.3339049816131592, 3.358920097351074, -77.85394287109375],
    [0.0, 0.0, 0.0, 1.0]
],
  "dcmmeta_reorient_transform": [
    [0.0, -1.0, 0.0, 63.0],
    [1.0, 0.0, 0.0, 0.0],
    [0.0, 0.0, 1.0, 0.0],
    [0.0, 0.0, 0.0, 1.0]
],
  "dcmmeta_shape": [64, 64, 33, 210],
  "dcmmeta_slice_dim": 2,
  "dcmmeta_version": 0.6,
  "global": {
    "const": {
      "AcquisitionMatrix": [64, 0, 0, 64],
      "AngioFlag": "N",
      "BitsAllocated": 16,
      "BitsStored": 12,
      "Columns": 384,
      "EchoNumbers": 1,
      "EchoTime": 30.0,
      "EchoTrainLength": 1,
      "FlipAngle": 78.0,
      "HighBit": 11,
      "ImageOrientationPatient": [1.0, 0.0, 0.0, 0.0, 0.895712, -0.444635],
      "ImagePositionPatient": [-580.567797, -551.518497, 219.60687],
      "ImageType": [
        "ORIGINAL",
        "PRIMARY",
        "M",
        "ND",
        "MOSAIC"
],
      "ImagedNucleus": "1H",
      "ImagingFrequency": 123.251783,
      "InPlanePhaseEncodingDirection": "COL",
      "MRAcquisitionType": "2D",
      "MagneticFieldStrength": 3.0,
      "Manufacturer": "SIEMENS",
      "ManufacturerModelName": "TrioTim",
      "Modality": "MR",
      "NumberOfAverages": 1.0,
      "NumberOfPhaseEncodingSteps": 64,
      "PercentPhaseFieldOfView": 100.0,
      "PercentSampling": 100.0,
      "PerformedProcedureStepStartTime": "164150.281000",
      "PhotometricInterpretation": "MONOCHROME2",
      "PixelAspectRatio": [1, 1],
      "PixelBandwidth": 2230.0,
      "PixelRepresentation": 0,
      "PixelSpacing": [3.0, 3.0],
      "ProtocolName": "CBU_DWEPI_BOLD210",
      "RepetitionTime": 2000.0,
      "Rows": 384,
      "SAR": 0.139965,
      "SamplesPerPixel": 1,
      "ScanOptions": "FS",
      "ScanningSequence": "EP",
      "SequenceName": "*epfid2d1_64",
      "SequenceVariant": "SK",
      "SeriesDescription": "CBU_DWEPI_BOLD210",
      "SeriesNumber": 5,
      "SeriesTime": "170616.765000",
      "SliceLocation": -48.520071,
      "SliceThickness": 3.0,
      "SmallestImagePixelValue": 0,
      "SoftwareVersions": "syngo MR B15",
      "SpacingBetweenSlices": 3.75,
      "SpecificCharacterSet": "ISO_IR 100",
      "StudyID": "1",
      "StudyTime": "164150.218000",
      "TransmitCoilName": "Body",
      "VariableFlipAngleFlag": "N",
      "WindowCenterWidthExplanation": "Algo1",
      "dBdt": 0.0},
    "slices": {}
  },
  "time": {
    "samples": {
      "AcquisitionNumber": [1, 2, 3, 4, 5, 6, 7, 8, 9, 10, 11, 12, 13, 14, 15, 16, 17, 18, 19, 20, 21, 22, 23, 24, 25, 26, 27, 28, 29, 30, 31, 32, 33, 34, 35, 36, 37, 38, 39, 40, 41, 42, 43, 44, 45, 46, 47, 48, 49, 50, 51, 52, 53, 54, 55, 56, 57, 58, 59, 60, 61, 62, 63, 64, 65, 66, 67, 68, 69, 70, 71, 72, 73, 74, 75, 76, 77, 78, 79, 80, 81, 82, 83, 84, 85, 86, 87, 88, 89, 90, 91, 92, 93, 94, 95, 96, 97, 98, 99, 100, 101, 102, 103, 104, 105, 106, 107, 108, 109, 110, 111, 112, 113, 114, 115, 116, 117, 118, 119, 120, 121, 122, 123, 124, 125, 126, 127, 128, 129, 130, 131, 132, 133, 134, 135, 136, 137, 138, 139, 140, 141, 142, 143, 144, 145, 146, 147, 148, 149, 150, 151, 152, 153, 154, 155, 156, 157, 158, 159, 160, 161, 162, 163, 164, 165, 166, 167, 168, 169, 170, 171, 172, 173, 174, 175, 176, 177, 178, 179, 180, 181, 182, 183, 184, 185, 186, 187, 188, 189, 190, 191, 192, 193, 194, 195, 196, 197, 198, 199, 200, 201, 202, 203, 204, 205, 206, 207, 208, 209, 210],
      "AcquisitionTime": ["170613.987500", "170615.995000", "170618.002500", "170620.012500", "170622.020000", "170624.027500", "170626.035000", "170628.042500", "170630.052500", "170632.060000", "170634.067500", "170636.075000", "170638.085000", "170640.092500", "170642.100000", "170644.107500", "170646.115000", "170648.125000", "170650.132500", "170652.140000", "170654.147500", "170656.155000", "170658.165000", "170700.172500", "170702.180000", "170704.187500", "170706.197500", "170708.205000", "170710.212500", "170712.220000", "170714.227500", "170716.237500", "170718.245000", "170720.252500", "170722.260000", "170724.267500", "170726.277500", "170728.285000", "170730.292500", "170732.300000", "170734.310000", "170736.317500", "170738.325000", "170740.332500", "170742.340000", "170744.350000", "170746.357500", "170748.365000", "170750.372500", "170752.380000", "170754.390000", "170756.397500", "170758.405000", "170800.412500", "170802.420000", "170804.430000", "170806.437500", "170808.445000", "170810.452500", "170812.462500", "170814.470000", "170816.477500", "170818.485000", "170820.492500", "170822.502500", "170824.510000", "170826.517500", "170828.525000", "170830.532500", "170832.542500", "170834.550000", "170836.557500", "170838.565000", "170840.575000", "170842.582500", "170844.590000", "170846.597500", "170848.605000", "170850.615000", "170852.622500", "170854.630000", "170856.637500", "170858.645000", "170900.655000", "170902.662500", "170904.670000", "170906.677500", "170908.687500", "170910.695000", "170912.702500", "170914.710000", "170916.717500", "170918.727500", "170920.735000", "170922.742500", "170924.750000", "170926.757500", "170928.767500", "170930.775000", "170932.782500", "170934.790000", "170936.797500", "170938.807500", "170940.815000", "170942.822500", "170944.830000", "170946.840000", "170948.847500", "170950.855000", "170952.862500", "170954.870000", "170956.880000", "170958.887500", "171000.895000", "171002.902500", "171004.910000", "171006.920000", "171008.927500", "171010.935000", "171012.942500", "171014.952500", "171016.960000", "171018.967500", "171020.975000", "171022.982500", "171024.992500", "171027.000000", "171029.007500", "171031.015000", "171033.022500", "171035.032500", "171037.040000", "171039.047500", "171041.055000", "171043.065000", "171045.072500", "171047.080000", "171049.087500", "171051.095000", "171053.105000", "171055.112500", "171057.120000", "171059.127500", "171101.135000", "171103.145000", "171105.152500", "171107.160000", "171109.167500", "171111.175000", "171113.185000", "171115.192500", "171117.200000", "171119.207500", "171121.217500", "171123.225000", "171125.232500", "171127.240000", "171129.247500", "171131.257500", "171133.265000", "171135.272500", "171137.280000", "171139.287500", "171141.297500", "171143.305000", "171145.312500", "171147.320000", "171149.330000", "171151.337500", "171153.345000", "171155.352500", "171157.360000", "171159.370000", "171201.377500", "171203.385000", "171205.392500", "171207.400000", "171209.410000", "171211.417500", "171213.425000", "171215.432500", "171217.442500", "171219.450000", "171221.457500", "171223.465000", "171225.472500", "171227.482500", "171229.490000", "171231.497500", "171233.505000", "171235.512500", "171237.522500", "171239.530000", "171241.537500", "171243.545000", "171245.552500", "171247.562500", "171249.570000", "171251.577500", "171253.585000", "171255.595000", "171257.602500", "171259.610000", "171301.617500", "171303.625000", "171305.635000", "171307.642500", "171309.650000", "171311.657500", "171313.665000"],
      "ContentTime": ["170616.765000", "170618.750000", "170620.750000", "170622.250000", "170624.250000", "170626.250000", "170628.750000", "170630.250000", "170632.250000", "170634.250000", "170636.250000", "170638.250000", "170640.250000", "170642.750000", "170644.250000", "170646.250000", "170648.750000", "170650.250000", "170652.250000", "170654.265000", "170656.250000", "170658.250000", "170700.250000", "170702.250000", "170704.750000", "170706.250000", "170708.250000", "170710.250000", "170712.250000", "170714.750000", "170716.250000", "170718.250000", "170720.750000", "170722.750000", "170724.250000", "170726.250000", "170728.250000", "170730.750000", "170732.250000", "170734.750000", "170736.750000", "170738.250000", "170740.250000", "170742.250000", "170744.750000", "170746.750000", "170748.250000", "170750.250000", "170752.750000", "170754.250000", "170756.250000", "170758.250000", "170800.250000", "170802.250000", "170804.750000", "170806.250000", "170808.750000", "170810.250000", "170812.250000", "170814.250000", "170816.750000", "170818.250000", "170820.250000", "170822.250000", "170824.750000", "170826.250000", "170828.250000", "170830.250000", "170832.250000", "170834.250000", "170836.250000", "170838.250000", "170840.750000", "170842.250000", "170844.250000", "170846.750000", "170848.250000", "170850.250000", "170852.250000", "170854.250000", "170856.750000", "170858.750000", "170900.250000", "170902.250000", "170904.250000", "170906.250000", "170908.250000", "170910.250000", "170912.750000", "170914.250000", "170916.250000", "170918.250000", "170920.250000", "170922.750000", "170924.250000", "170926.250000", "170928.750000", "170930.250000", "170932.250000", "170934.250000", "170936.250000", "170938.250000", "170940.250000", "170942.250000", "170944.750000", "170946.250000", "170948.250000", "170950.250000", "170952.750000", "170954.250000", "170956.250000", "170958.250000", "171000.750000", "171002.250000", "171004.250000", "171006.250000", "171008.250000", "171010.250000", "171012.250000", "171014.250000", "171016.750000", "171018.250000", "171020.250000", "171022.250000", "171024.250000", "171026.250000", "171028.250000", "171030.250000", "171032.750000", "171034.250000", "171036.250000", "171038.250000", "171040.250000", "171042.250000", "171044.750000", "171046.750000", "171048.750000", "171050.250000", "171052.250000", "171054.250000", "171056.250000", "171058.250000", "171100.250000", "171102.250000", "171104.750000", "171106.250000", "171108.250000", "171110.250000", "171112.250000", "171114.250000", "171116.250000", "171118.250000", "171120.750000", "171122.250000", "171124.250000", "171126.250000", "171128.250000", "171130.250000", "171132.250000", "171134.250000", "171136.750000", "171138.250000", "171140.250000", "171142.250000", "171144.250000", "171146.250000", "171148.250000", "171150.250000", "171152.750000", "171154.250000", "171156.250000", "171158.250000", "171200.250000", "171202.250000", "171204.250000", "171206.250000", "171208.750000", "171210.250000", "171212.250000", "171214.250000", "171216.250000", "171218.250000", "171220.250000", "171222.250000", "171224.750000", "171226.250000", "171228.250000", "171230.250000", "171232.250000", "171234.250000", "171236.250000", "171238.250000", "171240.750000", "171242.250000", "171244.250000", "171246.250000", "171248.250000", "171250.750000", "171252.250000", "171254.250000", "171256.750000", "171258.250000", "171300.250000", "171302.250000", "171304.750000", "171306.250000", "171308.250000", "171310.250000", "171312.750000", "171314.234000"],
      "InstanceCreationTime": ["170616.765000", "170618.750000", "170620.750000", "170622.250000", "170624.250000", "170626.250000", "170628.750000", "170630.250000", "170632.250000", "170634.250000", "170636.250000", "170638.250000", "170640.250000", "170642.750000", "170644.250000", "170646.250000", "170648.750000", "170650.250000", "170652.250000", "170654.265000", "170656.250000", "170658.250000", "170700.250000", "170702.250000", "170704.750000", "170706.250000", "170708.250000", "170710.250000", "170712.250000", "170714.750000", "170716.250000", "170718.250000", "170720.750000", "170722.750000", "170724.250000", "170726.250000", "170728.250000", "170730.750000", "170732.250000", "170734.750000", "170736.750000", "170738.250000", "170740.250000", "170742.250000", "170744.750000", "170746.750000", "170748.250000", "170750.250000", "170752.750000", "170754.250000", "170756.250000", "170758.250000", "170800.250000", "170802.250000", "170804.750000", "170806.250000", "170808.750000", "170810.250000", "170812.250000", "170814.250000", "170816.750000", "170818.250000", "170820.250000", "170822.250000", "170824.750000", "170826.250000", "170828.250000", "170830.250000", "170832.250000", "170834.250000", "170836.250000", "170838.250000", "170840.750000", "170842.250000", "170844.250000", "170846.750000", "170848.250000", "170850.250000", "170852.250000", "170854.250000", "170856.750000", "170858.750000", "170900.250000", "170902.250000", "170904.250000", "170906.250000", "170908.250000", "170910.250000", "170912.750000", "170914.250000", "170916.250000", "170918.250000", "170920.250000", "170922.750000", "170924.250000", "170926.250000", "170928.750000", "170930.250000", "170932.250000", "170934.250000", "170936.250000", "170938.250000", "170940.250000", "170942.250000", "170944.750000", "170946.250000", "170948.250000", "170950.250000", "170952.750000", "170954.250000", "170956.250000", "170958.250000", "171000.750000", "171002.250000", "171004.250000", "171006.250000", "171008.250000", "171010.250000", "171012.250000", "171014.250000", "171016.750000", "171018.250000", "171020.250000", "171022.250000", "171024.250000", "171026.250000", "171028.250000", "171030.250000", "171032.750000", "171034.250000", "171036.250000", "171038.250000", "171040.250000", "171042.250000", "171044.750000", "171046.750000", "171048.750000", "171050.250000", "171052.250000", "171054.250000", "171056.250000", "171058.250000", "171100.250000", "171102.250000", "171104.750000", "171106.250000", "171108.250000", "171110.250000", "171112.250000", "171114.250000", "171116.250000", "171118.250000", "171120.750000", "171122.250000", "171124.250000", "171126.250000", "171128.250000", "171130.250000", "171132.250000", "171134.250000", "171136.750000", "171138.250000", "171140.250000", "171142.250000", "171144.250000", "171146.250000", "171148.250000", "171150.250000", "171152.750000", "171154.250000", "171156.250000", "171158.250000", "171200.250000", "171202.250000", "171204.250000", "171206.250000", "171208.750000", "171210.250000", "171212.250000", "171214.250000", "171216.250000", "171218.250000", "171220.250000", "171222.250000", "171224.750000", "171226.250000", "171228.250000", "171230.250000", "171232.250000", "171234.250000", "171236.250000", "171238.250000", "171240.750000", "171242.250000", "171244.250000", "171246.250000", "171248.250000", "171250.750000", "171252.250000", "171254.250000", "171256.750000", "171258.250000", "171300.250000", "171302.250000", "171304.750000", "171306.250000", "171308.250000", "171310.250000", "171312.750000", "171314.234000"],
      "InstanceNumber": [1, 2, 3, 4, 5, 6, 7, 8, 9, 10, 11, 12, 13, 14, 15, 16, 17, 18, 19, 20, 21, 22, 23, 24, 25, 26, 27, 28, 29, 30, 31, 32, 33, 34, 35, 36, 37, 38, 39, 40, 41, 42, 43, 44, 45, 46, 47, 48, 49, 50, 51, 52, 53, 54, 55, 56, 57, 58, 59, 60, 61, 62, 63, 64, 65, 66, 67, 68, 69, 70, 71, 72, 73, 74, 75, 76, 77, 78, 79, 80, 81, 82, 83, 84, 85, 86, 87, 88, 89, 90, 91, 92, 93, 94, 95, 96, 97, 98, 99, 100, 101, 102, 103, 104, 105, 106, 107, 108, 109, 110, 111, 112, 113, 114, 115, 116, 117, 118, 119, 120, 121, 122, 123, 124, 125, 126, 127, 128, 129, 130, 131, 132, 133, 134, 135, 136, 137, 138, 139, 140, 141, 142, 143, 144, 145, 146, 147, 148, 149, 150, 151, 152, 153, 154, 155, 156, 157, 158, 159, 160, 161, 162, 163, 164, 165, 166, 167, 168, 169, 170, 171, 172, 173, 174, 175, 176, 177, 178, 179, 180, 181, 182, 183, 184, 185, 186, 187, 188, 189, 190, 191, 192, 193, 194, 195, 196, 197, 198, 199, 200, 201, 202, 203, 204, 205, 206, 207, 208, 209, 210],
      "LargestImagePixelValue": [1706, 1639, 1721, 1810, 1609, 1622, 1617, 1623, 1621, 1662, 1614, 1622, 1648, 1639, 1636, 1621, 1625, 1604, 1618, 1781, 1911, 1643, 1623, 1652, 1631, 1613, 1615, 1617, 1606, 1599, 1654, 1730, 1814, 1626, 1609, 1634, 1626, 1623, 1635, 1756, 1625, 1635, 1629, 1648, 1782, 1637, 1637, 1651, 1598, 1624, 1627, 1627, 1692, 1802, 1664, 1648, 1635, 1680, 1620, 1626, 1611, 1629, 1621, 1649, 1655, 1692, 1929, 1622, 1592, 1668, 1645, 1743, 1608, 1627, 1617, 1653, 1825, 1640, 1644, 1625, 1664, 1688, 1733, 1839, 1596, 1651, 1629, 1648, 1649, 1686, 1905, 1640, 1690, 1657, 1816, 1626, 1640, 1629, 1627, 1674, 1642, 1622, 1645, 1640, 1643, 1787, 1637, 1609, 1617, 1607, 1666, 1639, 1667, 1619, 1616, 1664, 1650, 1650, 1629, 1629, 1718, 1682, 1621, 1719, 1693, 1612, 1665, 1703, 1665, 1764, 1623, 1647, 1654, 1665, 1642, 1629, 1645, 1657, 1672, 1750, 1915, 1619, 1629, 1631, 1623, 1611, 1639, 1669, 1627, 1617, 1623, 1623, 1699, 1666, 1638, 1830, 1623, 1634, 1661, 1641, 1832, 1746, 1684, 1637, 1615, 1620, 1629, 1613, 1656, 1714, 1690, 1650, 1653, 1656, 1720, 1868, 1750, 1649, 1649, 1667, 1668, 1669, 1664, 1658, 1669, 1661, 1642, 1638, 1695, 1659, 1689, 1677, 1683, 1659, 1629, 1620, 1644, 1631, 1629, 1648, 1667, 1661, 1666, 1648, 1644, 1719, 1664, 1638, 1648, 1651],
      "WindowCenter": [736.0, 732.0, 731.0, 730.0, 729.0, 730.0, 731.0, 731.0, 730.0, 730.0, 729.0, 730.0, 731.0, 729.0, 729.0, 728.0, 730.0, 730.0, 730.0, 730.0, 730.0, 729.0, 730.0, 729.0, 729.0, 729.0, 728.0, 727.0, 728.0, 729.0, 730.0, 730.0, 730.0, 728.0, 729.0, 730.0, 731.0, 731.0, 731.0, 731.0, 730.0, 730.0, 730.0, 730.0, 730.0, 729.0, 729.0, 730.0, 729.0, 729.0, 730.0, 733.0, 733.0, 731.0, 729.0, 728.0, 729.0, 729.0, 731.0, 731.0, 731.0, 731.0, 732.0, 735.0, 735.0, 732.0, 731.0, 727.0, 728.0, 729.0, 728.0, 729.0, 727.0, 730.0, 733.0, 733.0, 732.0, 730.0, 731.0, 734.0, 736.0, 734.0, 730.0, 729.0, 727.0, 730.0, 730.0, 735.0, 735.0, 733.0, 731.0, 728.0, 729.0, 729.0, 729.0, 728.0, 728.0, 728.0, 730.0, 732.0, 733.0, 733.0, 734.0, 733.0, 731.0, 731.0, 731.0, 730.0, 729.0, 729.0, 732.0, 732.0, 731.0, 730.0, 731.0, 731.0, 732.0, 733.0, 733.0, 732.0, 732.0, 731.0, 731.0, 731.0, 731.0, 731.0, 732.0, 731.0, 730.0, 729.0, 727.0, 729.0, 731.0, 731.0, 731.0, 731.0, 735.0, 738.0, 736.0, 733.0, 732.0, 730.0, 730.0, 730.0, 729.0, 729.0, 729.0, 729.0, 731.0, 734.0, 734.0, 732.0, 732.0, 731.0, 731.0, 732.0, 733.0, 736.0, 736.0, 734.0, 733.0, 731.0, 731.0, 731.0, 730.0, 730.0, 731.0, 732.0, 734.0, 733.0, 735.0, 734.0, 738.0, 738.0, 735.0, 733.0, 731.0, 730.0, 730.0, 730.0, 730.0, 731.0, 732.0, 733.0, 734.0, 733.0, 732.0, 732.0, 732.0, 734.0, 735.0, 736.0, 735.0, 734.0, 735.0, 730.0, 733.0, 734.0, 734.0, 733.0, 733.0, 734.0, 735.0, 735.0, 734.0, 733.0, 733.0, 732.0, 733.0, 734.0],
      "WindowWidth": [1535.0, 1526.0, 1523.0, 1521.0, 1518.0, 1521.0, 1522.0, 1522.0, 1522.0, 1520.0, 1518.0, 1521.0, 1523.0, 1520.0, 1518.0, 1517.0, 1520.0, 1522.0, 1522.0, 1521.0, 1521.0, 1518.0, 1521.0, 1519.0, 1518.0, 1517.0, 1517.0, 1515.0, 1516.0, 1520.0, 1522.0, 1520.0, 1521.0, 1516.0, 1519.0, 1522.0, 1523.0, 1523.0, 1523.0, 1523.0, 1520.0, 1522.0, 1521.0, 1521.0, 1521.0, 1519.0, 1519.0, 1520.0, 1519.0, 1520.0, 1522.0, 1529.0, 1529.0, 1524.0, 1517.0, 1517.0, 1518.0, 1519.0, 1523.0, 1524.0, 1524.0, 1523.0, 1527.0, 1532.0, 1532.0, 1525.0, 1522.0, 1515.0, 1516.0, 1518.0, 1517.0, 1518.0, 1515.0, 1521.0, 1528.0, 1527.0, 1525.0, 1522.0, 1523.0, 1531.0, 1535.0, 1529.0, 1521.0, 1519.0, 1514.0, 1520.0, 1523.0, 1534.0, 1533.0, 1527.0, 1523.0, 1517.0, 1518.0, 1518.0, 1520.0, 1516.0, 1517.0, 1517.0, 1521.0, 1525.0, 1528.0, 1529.0, 1530.0, 1527.0, 1523.0, 1523.0, 1523.0, 1522.0, 1519.0, 1519.0, 1526.0, 1526.0, 1523.0, 1522.0, 1523.0, 1524.0, 1526.0, 1529.0, 1527.0, 1526.0, 1525.0, 1522.0, 1523.0, 1523.0, 1525.0, 1524.0, 1525.0, 1523.0, 1521.0, 1519.0, 1515.0, 1518.0, 1522.0, 1522.0, 1523.0, 1525.0, 1534.0, 1540.0, 1536.0, 1528.0, 1526.0, 1520.0, 1520.0, 1520.0, 1518.0, 1518.0, 1519.0, 1519.0, 1524.0, 1531.0, 1530.0, 1526.0, 1526.0, 1524.0, 1523.0, 1524.0, 1527.0, 1534.0, 1534.0, 1529.0, 1526.0, 1523.0, 1524.0, 1522.0, 1522.0, 1521.0, 1523.0, 1526.0, 1530.0, 1529.0, 1533.0, 1532.0, 1541.0, 1538.0, 1531.0, 1526.0, 1522.0, 1520.0, 1521.0, 1521.0, 1521.0, 1524.0, 1525.0, 1527.0, 1529.0, 1527.0, 1526.0, 1525.0, 1525.0, 1530.0, 1531.0, 1534.0, 1531.0, 1531.0, 1532.0, 1521.0, 1527.0, 1530.0, 1529.0, 1528.0, 1528.0, 1529.0, 1531.0, 1531.0, 1529.0, 1528.0, 1527.0, 1524.0, 1528.0, 1530.0]
    },
    "slices": {}
  }
}