{
  "AcquisitionMatrixPE": 64,
  "AcquisitionNumber": 1,
  "AcquisitionTime": "17:37:30.450000",
  "BandwidthPerPixelPhaseEncode": 30.637,
  "BaseResolution": 64,
  "BidsGuess": [
    "func",
    "_acq-epfid2_dir-AP_run-9_bold"
],
  "CoilCombinationMethod": "Sum of Squares",
  "CoilString": "C:HEA;HEP",
  "ConversionSoftware": "dcm2niix",
  "ConversionSoftwareVersion": "v1.0.20240202",
  "DerivedVendorReportedEchoSpacing": 0.000510004,
  "DeviceSerialNumber": "35119",
  "DwellTime": 3.5e-06,
  "EchoTime": 0.03,
  "EffectiveEchoSpacing": 0.000510004,
  "FlipAngle": 78,
  "HeudiconvVersion": "1.1.6",
  "ImageComments": "V",
  "ImageOrientationPatientDICOM": [1, 0, 0, 0, 0.895712, -0.444635],
  "ImageOrientationText": "Tra>Cor(-26.4)",
  "ImageType": [
    "ORIGINAL",
    "PRIMARY",
    "M",
    "ND",
    "MOSAIC"
],
  "ImagingFrequency": 123.251783,
  "InPlanePhaseEncodingDirectionDICOM": "COL",
  "InstitutionAddress": "Chaucer Road  15,Cambridge,UK,GB,CB2 2EF",
  "InstitutionName": "MRC-CBU",
  "MRAcquisitionType": "2D",
  "MagneticFieldStrength": 3,
  "Manufacturer": "Siemens",
  "ManufacturersModelName": "TrioTim",
  "MatrixCoilMode": "SENSE",
  "Modality": "MR",
  "NonlinearGradientCorrection": false,
  "PartialFourier": 1,
  "PatientPosition": "HFS",
  "PercentPhaseFOV": 100,
  "PercentSampling": 100,
  "PhaseEncodingDirection": "j-",
  "PhaseEncodingSteps": 64,
  "PhaseResolution": 1,
  "PixelBandwidth": 2230,
  "ProcedureStepDescription": "CBU^Neuroimaging",
  "ProtocolName": "CBU_DWEPI_BOLD210",
  "PulseSequenceDetails": "%SiemensSeq%\\ep2d_bold",
  "ReceiveCoilName": "HeadMatrix",
  "ReconMatrixPE": 64,
  "RepetitionTime": 2,
  "SAR": 0.139965,
  "ScanOptions": "FS",
  "ScanningSequence": "EP",
  "SequenceName": "*epfid2d1_64",
  "SequenceVariant": "SK",
  "SeriesDescription": "CBU_DWEPI_BOLD210",
  "SeriesNumber": 9,
  "ShimSetting": [-7803, -8783, -2001, 858, 247, -245, 34, 62],
  "SliceThickness": 3,
  "SliceTiming": [0, 1.035, 0.06, 1.095, 0.1225, 1.155, 0.1825, 1.2175, 0.2425, 1.2775, 0.305, 1.3375, 0.365, 1.4, 0.425, 1.46, 0.4875, 1.52, 0.5475, 1.5825, 0.6075, 1.6425, 0.67, 1.7025, 0.73, 1.765, 0.79, 1.825, 0.8525, 1.885, 0.9125, 1.9475, 0.9725],
  "SoftwareVersions": "syngo MR B15",
  "SpacingBetweenSlices": 3.75,
  "StationName": "MRC35119",
  "TaskName": "faceprocessing",
  "TotalReadoutTime": 0.0321303,
  "TxRefAmp": 328.238,
  "dcmmeta_affine": [
    [-3.0, 0.0, 0.0, 100.56779479980469],
    [0.0, 2.687135934829712, -1.6673812866210938, -47.71282958984375],
    [0.0, 1.3339049816131592, 3.358920097351074, -77.85394287109375],
    [0.0, 0.0, 0.0, 1.0]
],
  "dcmmeta_reorient_transform": [
    [0.0, -1.0, 0.0, 63.0],
    [1.0, 0.0, 0.0, 0.0],
    [0.0, 0.0, 1.0, 0.0],
    [0.0, 0.0, 0.0, 1.0]
],
  "dcmmeta_shape": [64, 64, 33, 210],
  "dcmmeta_slice_dim": 2,
  "dcmmeta_version": 0.6,
  "global": {
    "const": {
      "AcquisitionMatrix": [64, 0, 0, 64],
      "AngioFlag": "N",
      "BitsAllocated": 16,
      "BitsStored": 12,
      "Columns": 384,
      "EchoNumbers": 1,
      "EchoTime": 30.0,
      "EchoTrainLength": 1,
      "FlipAngle": 78.0,
      "HighBit": 11,
      "ImageOrientationPatient": [1.0, 0.0, 0.0, 0.0, 0.895712, -0.444635],
      "ImagePositionPatient": [-580.567797, -551.518497, 219.60687],
      "ImageType": [
        "ORIGINAL",
        "PRIMARY",
        "M",
        "ND",
        "MOSAIC"
],
      "ImagedNucleus": "1H",
      "ImagingFrequency": 123.251783,
      "InPlanePhaseEncodingDirection": "COL",
      "MRAcquisitionType": "2D",
      "MagneticFieldStrength": 3.0,
      "Manufacturer": "SIEMENS",
      "ManufacturerModelName": "TrioTim",
      "Modality": "MR",
      "NumberOfAverages": 1.0,
      "NumberOfPhaseEncodingSteps": 64,
      "PercentPhaseFieldOfView": 100.0,
      "PercentSampling": 100.0,
      "PerformedProcedureStepStartTime": "164150.281000",
      "PhotometricInterpretation": "MONOCHROME2",
      "PixelAspectRatio": [1, 1],
      "PixelBandwidth": 2230.0,
      "PixelRepresentation": 0,
      "PixelSpacing": [3.0, 3.0],
      "ProtocolName": "CBU_DWEPI_BOLD210",
      "RepetitionTime": 2000.0,
      "Rows": 384,
      "SAR": 0.139965,
      "SamplesPerPixel": 1,
      "ScanOptions": "FS",
      "ScanningSequence": "EP",
      "SequenceName": "*epfid2d1_64",
      "SequenceVariant": "SK",
      "SeriesDescription": "CBU_DWEPI_BOLD210",
      "SeriesNumber": 9,
      "SeriesTime": "173733.843000",
      "SliceLocation": -48.520071,
      "SliceThickness": 3.0,
      "SmallestImagePixelValue": 0,
      "SoftwareVersions": "syngo MR B15",
      "SpacingBetweenSlices": 3.75,
      "SpecificCharacterSet": "ISO_IR 100",
      "StudyID": "1",
      "StudyTime": "164150.218000",
      "TransmitCoilName": "Body",
      "VariableFlipAngleFlag": "N",
      "WindowCenterWidthExplanation": "Algo1",
      "dBdt": 0.0},
    "slices": {}
  },
  "time": {
    "samples": {
      "AcquisitionNumber": [1, 2, 3, 4, 5, 6, 7, 8, 9, 10, 11, 12, 13, 14, 15, 16, 17, 18, 19, 20, 21, 22, 23, 24, 25, 26, 27, 28, 29, 30, 31, 32, 33, 34, 35, 36, 37, 38, 39, 40, 41, 42, 43, 44, 45, 46, 47, 48, 49, 50, 51, 52, 53, 54, 55, 56, 57, 58, 59, 60, 61, 62, 63, 64, 65, 66, 67, 68, 69, 70, 71, 72, 73, 74, 75, 76, 77, 78, 79, 80, 81, 82, 83, 84, 85, 86, 87, 88, 89, 90, 91, 92, 93, 94, 95, 96, 97, 98, 99, 100, 101, 102, 103, 104, 105, 106, 107, 108, 109, 110, 111, 112, 113, 114, 115, 116, 117, 118, 119, 120, 121, 122, 123, 124, 125, 126, 127, 128, 129, 130, 131, 132, 133, 134, 135, 136, 137, 138, 139, 140, 141, 142, 143, 144, 145, 146, 147, 148, 149, 150, 151, 152, 153, 154, 155, 156, 157, 158, 159, 160, 161, 162, 163, 164, 165, 166, 167, 168, 169, 170, 171, 172, 173, 174, 175, 176, 177, 178, 179, 180, 181, 182, 183, 184, 185, 186, 187, 188, 189, 190, 191, 192, 193, 194, 195, 196, 197, 198, 199, 200, 201, 202, 203, 204, 205, 206, 207, 208, 209, 210],
      "AcquisitionTime": ["173730.450000", "173732.457500", "173734.465000", "173736.475000", "173738.482500", "173740.490000", "173742.497500", "173744.505000", "173746.515000", "173748.522500", "173750.530000", "173752.537500", "173754.547500", "173756.555000", "173758.562500", "173800.570000", "173802.577500", "173804.587500", "173806.595000", "173808.602500", "173810.610000", "173812.617500", "173814.627500", "173816.635000", "173818.642500", "173820.650000", "173822.660000", "173824.667500", "173826.675000", "173828.682500", "173830.690000", "173832.700000", "173834.707500", "173836.715000", "173838.722500", "173840.730000", "173842.740000", "173844.747500", "173846.755000", "173848.762500", "173850.770000", "173852.780000", "173854.787500", "173856.795000", "173858.802500", "173900.812500", "173902.820000", "173904.827500", "173906.835000", "173908.842500", "173910.852500", "173912.860000", "173914.867500", "173916.875000", "173918.882500", "173920.892500", "173922.900000", "173924.907500", "173926.915000", "173928.925000", "173930.932500", "173932.940000", "173934.947500", "173936.955000", "173938.965000", "173940.972500", "173942.980000", "173944.987500", "173946.995000", "173949.005000", "173951.012500", "173953.020000", "173955.027500", "173957.037500", "173959.045000", "174001.052500", "174003.060000", "174005.067500", "174007.077500", "174009.085000", "174011.092500", "174013.100000", "174015.107500", "174017.117500", "174019.125000", "174021.132500", "174023.140000", "174025.147500", "174027.157500", "174029.165000", "174031.172500", "174033.180000", "174035.190000", "174037.197500", "174039.205000", "174041.212500", "174043.220000", "174045.230000", "174047.237500", "174049.245000", "174051.252500", "174053.260000", "174055.270000", "174057.277500", "174059.285000", "174101.292500", "174103.302500", "174105.310000", "174107.317500", "174109.325000", "174111.332500", "174113.342500", "174115.350000", "174117.357500", "174119.365000", "174121.372500", "174123.382500", "174125.390000", "174127.397500", "174129.405000", "174131.415000", "174133.422500", "174135.430000", "174137.437500", "174139.445000", "174141.455000", "174143.462500", "174145.470000", "174147.477500", "174149.485000", "174151.495000", "174153.502500", "174155.510000", "174157.517500", "174159.527500", "174201.535000", "174203.542500", "174205.550000", "174207.557500", "174209.567500", "174211.575000", "174213.582500", "174215.590000", "174217.597500", "174219.607500", "174221.615000", "174223.622500", "174225.630000", "174227.637500", "174229.647500", "174231.655000", "174233.662500", "174235.670000", "174237.680000", "174239.687500", "174241.695000", "174243.702500", "174245.710000", "174247.720000", "174249.727500", "174251.735000", "174253.742500", "174255.750000", "174257.760000", "174259.767500", "174301.775000", "174303.782500", "174305.792500", "174307.800000", "174309.807500", "174311.815000", "174313.822500", "174315.832500", "174317.840000", "174319.847500", "174321.855000", "174323.862500", "174325.872500", "174327.880000", "174329.887500", "174331.895000", "174333.905000", "174335.912500", "174337.920000", "174339.927500", "174341.935000", "174343.945000", "174345.952500", "174347.960000", "174349.967500", "174351.975000", "174353.985000", "174355.992500", "174358.000000", "174400.007500", "174402.015000", "174404.025000", "174406.032500", "174408.040000", "174410.047500", "174412.057500", "174414.065000", "174416.072500", "174418.080000", "174420.087500", "174422.097500", "174424.105000", "174426.112500", "174428.120000", "174430.127500"],
      "ContentTime": ["173733.843000", "173735.843000", "173737.843000", "173739.843000", "173741.843000", "173743.843000", "173745.843000", "173747.843000", "173749.843000", "173751.843000", "173753.843000", "173755.843000", "173757.843000", "173759.843000", "173801.843000", "173803.843000", "173805.843000", "173807.843000", "173809.843000", "173811.843000", "173813.843000", "173815.843000", "173817.843000", "173819.843000", "173821.843000", "173823.843000", "173825.843000", "173827.843000", "173829.843000", "173831.843000", "173833.843000", "173835.843000", "173837.843000", "173839.843000", "173841.843000", "173843.843000", "173845.843000", "173847.843000", "173849.843000", "173851.843000", "173853.843000", "173855.843000", "173857.843000", "173859.843000", "173901.843000", "173903.843000", "173905.843000", "173907.843000", "173909.843000", "173911.843000", "173913.843000", "173915.843000", "173917.843000", "173919.843000", "173921.843000", "173923.843000", "173925.843000", "173927.843000", "173929.843000", "173931.843000", "173933.843000", "173935.843000", "173937.843000", "173939.843000", "173941.843000", "173943.843000", "173945.843000", "173947.843000", "173949.843000", "173951.843000", "173953.843000", "173955.843000", "173957.843000", "173959.843000", "174001.843000", "174003.843000", "174005.843000", "174007.843000", "174009.843000", "174011.843000", "174013.843000", "174015.843000", "174017.843000", "174019.843000", "174021.843000", "174023.843000", "174025.843000", "174027.843000", "174029.843000", "174031.843000", "174033.843000", "174035.843000", "174037.843000", "174039.843000", "174041.843000", "174043.843000", "174045.843000", "174047.843000", "174049.843000", "174051.843000", "174053.843000", "174055.843000", "174057.843000", "174059.843000", "174101.843000", "174103.843000", "174105.843000", "174107.843000", "174109.843000", "174111.843000", "174113.843000", "174115.843000", "174117.843000", "174119.843000", "174121.843000", "174123.843000", "174125.843000", "174127.843000", "174129.843000", "174131.843000", "174133.843000", "174135.843000", "174137.843000", "174139.843000", "174141.843000", "174143.843000", "174145.843000", "174147.843000", "174149.843000", "174151.843000", "174153.843000", "174155.843000", "174157.843000", "174159.843000", "174201.843000", "174203.843000", "174205.843000", "174207.843000", "174209.843000", "174211.843000", "174213.843000", "174215.843000", "174217.843000", "174219.843000", "174221.843000", "174223.843000", "174225.843000", "174227.843000", "174229.843000", "174231.843000", "174233.843000", "174235.843000", "174237.843000", "174239.843000", "174241.843000", "174243.843000", "174245.843000", "174247.843000", "174249.843000", "174251.843000", "174253.843000", "174255.843000", "174257.843000", "174259.843000", "174301.843000", "174303.843000", "174305.843000", "174307.843000", "174309.843000", "174311.843000", "174313.843000", "174315.843000", "174317.843000", "174319.843000", "174321.843000", "174323.843000", "174325.843000", "174327.843000", "174329.843000", "174331.843000", "174333.843000", "174335.843000", "174337.843000", "174339.843000", "174341.843000", "174343.843000", "174345.843000", "174347.843000", "174349.843000", "174351.843000", "174353.843000", "174355.843000", "174357.843000", "174359.843000", "174401.843000", "174403.843000", "174405.843000", "174407.843000", "174409.843000", "174411.843000", "174413.843000", "174415.843000", "174417.843000", "174419.843000", "174421.843000", "174423.843000", "174425.843000", "174427.843000", "174429.843000", "174431.546000"],
      "InstanceCreationTime": ["173733.843000", "173735.843000", "173737.843000", "173739.843000", "173741.843000", "173743.843000", "173745.843000", "173747.843000", "173749.843000", "173751.843000", "173753.843000", "173755.843000", "173757.843000", "173759.843000", "173801.843000", "173803.843000", "173805.843000", "173807.843000", "173809.843000", "173811.843000", "173813.843000", "173815.843000", "173817.843000", "173819.843000", "173821.843000", "173823.843000", "173825.843000", "173827.843000", "173829.843000", "173831.843000", "173833.843000", "173835.843000", "173837.843000", "173839.843000", "173841.843000", "173843.843000", "173845.843000", "173847.843000", "173849.843000", "173851.843000", "173853.843000", "173855.843000", "173857.843000", "173859.843000", "173901.843000", "173903.843000", "173905.843000", "173907.843000", "173909.843000", "173911.843000", "173913.843000", "173915.843000", "173917.843000", "173919.843000", "173921.843000", "173923.843000", "173925.843000", "173927.843000", "173929.843000", "173931.843000", "173933.843000", "173935.843000", "173937.843000", "173939.843000", "173941.843000", "173943.843000", "173945.843000", "173947.843000", "173949.843000", "173951.843000", "173953.843000", "173955.843000", "173957.843000", "173959.843000", "174001.843000", "174003.843000", "174005.843000", "174007.843000", "174009.843000", "174011.843000", "174013.843000", "174015.843000", "174017.843000", "174019.843000", "174021.843000", "174023.843000", "174025.843000", "174027.843000", "174029.843000", "174031.843000", "174033.843000", "174035.843000", "174037.843000", "174039.843000", "174041.843000", "174043.843000", "174045.843000", "174047.843000", "174049.843000", "174051.843000", "174053.843000", "174055.843000", "174057.843000", "174059.843000", "174101.843000", "174103.843000", "174105.843000", "174107.843000", "174109.843000", "174111.843000", "174113.843000", "174115.843000", "174117.843000", "174119.843000", "174121.843000", "174123.843000", "174125.843000", "174127.843000", "174129.843000", "174131.843000", "174133.843000", "174135.843000", "174137.843000", "174139.843000", "174141.843000", "174143.843000", "174145.843000", "174147.843000", "174149.843000", "174151.843000", "174153.843000", "174155.843000", "174157.843000", "174159.843000", "174201.843000", "174203.843000", "174205.843000", "174207.843000", "174209.843000", "174211.843000", "174213.843000", "174215.843000", "174217.843000", "174219.843000", "174221.843000", "174223.843000", "174225.843000", "174227.843000", "174229.843000", "174231.843000", "174233.843000", "174235.843000", "174237.843000", "174239.843000", "174241.843000", "174243.843000", "174245.843000", "174247.843000", "174249.843000", "174251.843000", "174253.843000", "174255.843000", "174257.843000", "174259.843000", "174301.843000", "174303.843000", "174305.843000", "174307.843000", "174309.843000", "174311.843000", "174313.843000", "174315.843000", "174317.843000", "174319.843000", "174321.843000", "174323.843000", "174325.843000", "174327.843000", "174329.843000", "174331.843000", "174333.843000", "174335.843000", "174337.843000", "174339.843000", "174341.843000", "174343.843000", "174345.843000", "174347.843000", "174349.843000", "174351.843000", "174353.843000", "174355.843000", "174357.843000", "174359.843000", "174401.843000", "174403.843000", "174405.843000", "174407.843000", "174409.843000", "174411.843000", "174413.843000", "174415.843000", "174417.843000", "174419.843000", "174421.843000", "174423.843000", "174425.843000", "174427.843000", "174429.843000", "174431.546000"],
      "InstanceNumber": [1, 2, 3, 4, 5, 6, 7, 8, 9, 10, 11, 12, 13, 14, 15, 16, 17, 18, 19, 20, 21, 22, 23, 24, 25, 26, 27, 28, 29, 30, 31, 32, 33, 34, 35, 36, 37, 38, 39, 40, 41, 42, 43, 44, 45, 46, 47, 48, 49, 50, 51, 52, 53, 54, 55, 56, 57, 58, 59, 60, 61, 62, 63, 64, 65, 66, 67, 68, 69, 70, 71, 72, 73, 74, 75, 76, 77, 78, 79, 80, 81, 82, 83, 84, 85, 86, 87, 88, 89, 90, 91, 92, 93, 94, 95, 96, 97, 98, 99, 100, 101, 102, 103, 104, 105, 106, 107, 108, 109, 110, 111, 112, 113, 114, 115, 116, 117, 118, 119, 120, 121, 122, 123, 124, 125, 126, 127, 128, 129, 130, 131, 132, 133, 134, 135, 136, 137, 138, 139, 140, 141, 142, 143, 144, 145, 146, 147, 148, 149, 150, 151, 152, 153, 154, 155, 156, 157, 158, 159, 160, 161, 162, 163, 164, 165, 166, 167, 168, 169, 170, 171, 172, 173, 174, 175, 176, 177, 178, 179, 180, 181, 182, 183, 184, 185, 186, 187, 188, 189, 190, 191, 192, 193, 194, 195, 196, 197, 198, 199, 200, 201, 202, 203, 204, 205, 206, 207, 208, 209, 210],
      "LargestImagePixelValue": [1794, 1731, 1743, 1744, 1742, 1748, 1710, 1728, 1838, 1692, 1661, 1729, 1750, 1764, 1749, 1700, 1705, 1734, 1970, 1754, 1697, 1715, 1758, 1740, 1667, 1733, 1756, 1721, 1773, 1788, 1808, 1804, 1820, 1780, 1800, 1801, 1755, 1716, 1744, 1753, 1732, 1731, 1709, 1689, 1749, 1753, 1767, 1742, 1795, 1746, 1768, 1770, 1786, 1775, 1759, 1701, 1742, 1766, 1802, 1811, 1783, 1788, 1809, 1761, 1745, 1755, 1697, 1785, 1775, 1726, 1737, 1760, 1732, 1790, 1725, 1686, 1682, 1764, 1772, 1754, 1702, 1723, 1808, 1786, 1775, 1755, 1756, 1763, 1733, 1746, 1746, 1737, 1671, 1697, 1675, 1671, 1673, 1779, 1785, 1755, 1768, 1797, 1817, 1748, 1708, 1788, 1795, 1747, 1735, 1807, 1754, 1716, 1719, 1675, 1655, 1711, 1741, 1730, 1742, 1752, 1739, 1732, 1743, 1728, 1668, 1735, 1817, 1760, 1817, 1735, 1727, 1730, 1745, 1694, 1706, 1705, 1725, 1745, 1744, 1707, 1745, 1755, 1778, 1716, 1656, 1645, 1628, 1614, 1676, 1670, 1647, 1695, 1702, 1705, 1729, 1694, 1685, 1739, 1731, 1715, 1747, 1751, 1712, 1729, 1707, 1747, 1780, 1720, 1719, 1766, 1737, 1724, 1731, 1724, 1737, 1727, 1745, 1757, 1710, 1723, 1740, 1738, 1699, 1742, 1726, 1763, 1797, 1794, 1763, 1727, 1704, 1747, 1746, 1771, 1736, 1769, 1783, 1770, 1800, 1802, 1770, 1751, 1743, 1736, 1750, 1755, 1745, 1791, 1792, 1766],
      "WindowCenter": [739.0, 737.0, 737.0, 736.0, 735.0, 734.0, 733.0, 733.0, 733.0, 732.0, 731.0, 733.0, 734.0, 734.0, 733.0, 733.0, 734.0, 734.0, 734.0, 731.0, 730.0, 732.0, 732.0, 732.0, 731.0, 732.0, 732.0, 732.0, 733.0, 733.0, 734.0, 735.0, 736.0, 736.0, 736.0, 736.0, 735.0, 734.0, 733.0, 733.0, 733.0, 733.0, 732.0, 732.0, 733.0, 732.0, 732.0, 733.0, 735.0, 734.0, 734.0, 734.0, 734.0, 734.0, 733.0, 732.0, 733.0, 734.0, 735.0, 735.0, 735.0, 735.0, 734.0, 734.0, 733.0, 733.0, 733.0, 733.0, 733.0, 733.0, 735.0, 735.0, 734.0, 736.0, 734.0, 733.0, 733.0, 734.0, 734.0, 733.0, 732.0, 735.0, 736.0, 736.0, 736.0, 735.0, 734.0, 733.0, 733.0, 733.0, 731.0, 732.0, 731.0, 731.0, 731.0, 731.0, 732.0, 733.0, 733.0, 733.0, 734.0, 734.0, 734.0, 733.0, 733.0, 734.0, 736.0, 737.0, 738.0, 736.0, 734.0, 733.0, 734.0, 735.0, 735.0, 735.0, 735.0, 735.0, 735.0, 735.0, 735.0, 735.0, 735.0, 734.0, 734.0, 735.0, 737.0, 736.0, 734.0, 733.0, 733.0, 734.0, 735.0, 734.0, 733.0, 733.0, 733.0, 734.0, 734.0, 735.0, 735.0, 736.0, 736.0, 736.0, 736.0, 735.0, 735.0, 735.0, 736.0, 736.0, 735.0, 735.0, 735.0, 737.0, 738.0, 737.0, 735.0, 735.0, 736.0, 737.0, 737.0, 736.0, 735.0, 735.0, 735.0, 735.0, 736.0, 735.0, 736.0, 737.0, 736.0, 735.0, 736.0, 735.0, 735.0, 736.0, 735.0, 735.0, 734.0, 734.0, 736.0, 736.0, 735.0, 734.0, 734.0, 736.0, 737.0, 737.0, 735.0, 735.0, 735.0, 735.0, 735.0, 736.0, 736.0, 737.0, 737.0, 737.0, 737.0, 737.0, 737.0, 735.0, 734.0, 735.0, 735.0, 735.0, 735.0, 742.0, 734.0, 736.0],
      "WindowWidth": [1543.0, 1537.0, 1536.0, 1534.0, 1532.0, 1530.0, 1527.0, 1527.0, 1528.0, 1525.0, 1524.0, 1528.0, 1530.0, 1529.0, 1528.0, 1527.0, 1529.0, 1529.0, 1529.0, 1522.0, 1521.0, 1526.0, 1526.0, 1525.0, 1523.0, 1525.0, 1526.0, 1526.0, 1528.0, 1529.0, 1531.0, 1533.0, 1534.0, 1534.0, 1535.0, 1535.0, 1533.0, 1529.0, 1528.0, 1527.0, 1527.0, 1527.0, 1526.0, 1526.0, 1527.0, 1526.0, 1527.0, 1528.0, 1532.0, 1531.0, 1530.0, 1530.0, 1530.0, 1530.0, 1528.0, 1526.0, 1528.0, 1529.0, 1533.0, 1533.0, 1532.0, 1531.0, 1531.0, 1530.0, 1529.0, 1529.0, 1528.0, 1529.0, 1529.0, 1528.0, 1532.0, 1534.0, 1530.0, 1534.0, 1529.0, 1527.0, 1529.0, 1529.0, 1529.0, 1528.0, 1527.0, 1531.0, 1536.0, 1536.0, 1536.0, 1533.0, 1530.0, 1528.0, 1528.0, 1527.0, 1524.0, 1525.0, 1524.0, 1524.0, 1523.0, 1523.0, 1524.0, 1527.0, 1527.0, 1528.0, 1531.0, 1531.0, 1531.0, 1526.0, 1528.0, 1531.0, 1535.0, 1538.0, 1538.0, 1534.0, 1530.0, 1528.0, 1530.0, 1531.0, 1531.0, 1532.0, 1533.0, 1532.0, 1531.0, 1533.0, 1533.0, 1533.0, 1533.0, 1529.0, 1529.0, 1533.0, 1538.0, 1534.0, 1531.0, 1527.0, 1528.0, 1531.0, 1532.0, 1531.0, 1528.0, 1527.0, 1529.0, 1530.0, 1531.0, 1531.0, 1533.0, 1533.0, 1535.0, 1535.0, 1533.0, 1531.0, 1531.0, 1532.0, 1536.0, 1535.0, 1533.0, 1532.0, 1533.0, 1537.0, 1539.0, 1536.0, 1532.0, 1533.0, 1535.0, 1537.0, 1537.0, 1536.0, 1534.0, 1532.0, 1532.0, 1533.0, 1534.0, 1532.0, 1534.0, 1536.0, 1534.0, 1533.0, 1533.0, 1532.0, 1533.0, 1534.0, 1533.0, 1531.0, 1530.0, 1530.0, 1534.0, 1533.0, 1531.0, 1530.0, 1531.0, 1534.0, 1538.0, 1536.0, 1532.0, 1533.0, 1532.0, 1532.0, 1533.0, 1534.0, 1535.0, 1536.0, 1536.0, 1537.0, 1537.0, 1537.0, 1536.0, 1533.0, 1531.0, 1532.0, 1533.0, 1532.0, 1533.0, 1549.0, 1530.0, 1536.0]
    },
    "slices": {}
  }
}