{
  "AcquisitionMatrixPE": 64,
  "AcquisitionNumber": 1,
  "AcquisitionTime": "17:21:48.860000",
  "BandwidthPerPixelPhaseEncode": 30.637,
  "BaseResolution": 64,
  "BidsGuess": [
    "func",
    "_acq-epfid2_dir-AP_run-7_bold"
],
  "CoilCombinationMethod": "Sum of Squares",
  "CoilString": "C:HEA;HEP",
  "ConversionSoftware": "dcm2niix",
  "ConversionSoftwareVersion": "v1.0.20240202",
  "DerivedVendorReportedEchoSpacing": 0.000510004,
  "DeviceSerialNumber": "35119",
  "DwellTime": 3.5e-06,
  "EchoTime": 0.03,
  "EffectiveEchoSpacing": 0.000510004,
  "FlipAngle": 78,
  "HeudiconvVersion": "1.1.6",
  "ImageComments": "V",
  "ImageOrientationPatientDICOM": [1, 0, 0, 0, 0.895712, -0.444635],
  "ImageOrientationText": "Tra>Cor(-26.4)",
  "ImageType": [
    "ORIGINAL",
    "PRIMARY",
    "M",
    "ND",
    "MOSAIC"
],
  "ImagingFrequency": 123.251783,
  "InPlanePhaseEncodingDirectionDICOM": "COL",
  "InstitutionAddress": "Chaucer Road  15,Cambridge,UK,GB,CB2 2EF",
  "InstitutionName": "MRC-CBU",
  "MRAcquisitionType": "2D",
  "MagneticFieldStrength": 3,
  "Manufacturer": "Siemens",
  "ManufacturersModelName": "TrioTim",
  "MatrixCoilMode": "SENSE",
  "Modality": "MR",
  "NonlinearGradientCorrection": false,
  "PartialFourier": 1,
  "PatientPosition": "HFS",
  "PercentPhaseFOV": 100,
  "PercentSampling": 100,
  "PhaseEncodingDirection": "j-",
  "PhaseEncodingSteps": 64,
  "PhaseResolution": 1,
  "PixelBandwidth": 2230,
  "ProcedureStepDescription": "CBU^Neuroimaging",
  "ProtocolName": "CBU_DWEPI_BOLD210",
  "PulseSequenceDetails": "%SiemensSeq%\\ep2d_bold",
  "ReceiveCoilName": "HeadMatrix",
  "ReconMatrixPE": 64,
  "RepetitionTime": 2,
  "SAR": 0.139965,
  "ScanOptions": "FS",
  "ScanningSequence": "EP",
  "SequenceName": "*epfid2d1_64",
  "SequenceVariant": "SK",
  "SeriesDescription": "CBU_DWEPI_BOLD210",
  "SeriesNumber": 7,
  "ShimSetting": [-7803, -8783, -2001, 858, 247, -245, 34, 62],
  "SliceThickness": 3,
  "SliceTiming": [0, 1.0325, 0.06, 1.095, 0.12, 1.155, 0.1825, 1.215, 0.2425, 1.2775, 0.3025, 1.3375, 0.365, 1.3975, 0.425, 1.46, 0.485, 1.52, 0.5475, 1.58, 0.6075, 1.6425, 0.6675, 1.7025, 0.73, 1.7625, 0.79, 1.825, 0.85, 1.885, 0.9125, 1.945, 0.9725],
  "SoftwareVersions": "syngo MR B15",
  "SpacingBetweenSlices": 3.75,
  "StationName": "MRC35119",
  "TaskName": "faceprocessing",
  "TotalReadoutTime": 0.0321303,
  "TxRefAmp": 328.238,
  "dcmmeta_affine": [
    [-3.0, 0.0, 0.0, 100.56779479980469],
    [0.0, 2.687135934829712, -1.6673812866210938, -47.71282958984375],
    [0.0, 1.3339049816131592, 3.358920097351074, -77.85394287109375],
    [0.0, 0.0, 0.0, 1.0]
],
  "dcmmeta_reorient_transform": [
    [0.0, -1.0, 0.0, 63.0],
    [1.0, 0.0, 0.0, 0.0],
    [0.0, 0.0, 1.0, 0.0],
    [0.0, 0.0, 0.0, 1.0]
],
  "dcmmeta_shape": [64, 64, 33, 210],
  "dcmmeta_slice_dim": 2,
  "dcmmeta_version": 0.6,
  "global": {
    "const": {
      "AcquisitionMatrix": [64, 0, 0, 64],
      "AngioFlag": "N",
      "BitsAllocated": 16,
      "BitsStored": 12,
      "Columns": 384,
      "EchoNumbers": 1,
      "EchoTime": 30.0,
      "EchoTrainLength": 1,
      "FlipAngle": 78.0,
      "HighBit": 11,
      "ImageOrientationPatient": [1.0, 0.0, 0.0, 0.0, 0.895712, -0.444635],
      "ImagePositionPatient": [-580.567797, -551.518497, 219.60687],
      "ImageType": [
        "ORIGINAL",
        "PRIMARY",
        "M",
        "ND",
        "MOSAIC"
],
      "ImagedNucleus": "1H",
      "ImagingFrequency": 123.251783,
      "InPlanePhaseEncodingDirection": "COL",
      "MRAcquisitionType": "2D",
      "MagneticFieldStrength": 3.0,
      "Manufacturer": "SIEMENS",
      "ManufacturerModelName": "TrioTim",
      "Modality": "MR",
      "NumberOfAverages": 1.0,
      "NumberOfPhaseEncodingSteps": 64,
      "PercentPhaseFieldOfView": 100.0,
      "PercentSampling": 100.0,
      "PerformedProcedureStepStartTime": "164150.281000",
      "PhotometricInterpretation": "MONOCHROME2",
      "PixelAspectRatio": [1, 1],
      "PixelBandwidth": 2230.0,
      "PixelRepresentation": 0,
      "PixelSpacing": [3.0, 3.0],
      "ProtocolName": "CBU_DWEPI_BOLD210",
      "RepetitionTime": 2000.0,
      "Rows": 384,
      "SAR": 0.139965,
      "SamplesPerPixel": 1,
      "ScanOptions": "FS",
      "ScanningSequence": "EP",
      "SequenceName": "*epfid2d1_64",
      "SequenceVariant": "SK",
      "SeriesDescription": "CBU_DWEPI_BOLD210",
      "SeriesNumber": 7,
      "SeriesTime": "172152.046000",
      "SliceLocation": -48.520071,
      "SliceThickness": 3.0,
      "SmallestImagePixelValue": 0,
      "SoftwareVersions": "syngo MR B15",
      "SpacingBetweenSlices": 3.75,
      "SpecificCharacterSet": "ISO_IR 100",
      "StudyID": "1",
      "StudyTime": "164150.218000",
      "TransmitCoilName": "Body",
      "VariableFlipAngleFlag": "N",
      "WindowCenterWidthExplanation": "Algo1",
      "dBdt": 0.0},
    "slices": {}
  },
  "time": {
    "samples": {
      "AcquisitionNumber": [1, 2, 3, 4, 5, 6, 7, 8, 9, 10, 11, 12, 13, 14, 15, 16, 17, 18, 19, 20, 21, 22, 23, 24, 25, 26, 27, 28, 29, 30, 31, 32, 33, 34, 35, 36, 37, 38, 39, 40, 41, 42, 43, 44, 45, 46, 47, 48, 49, 50, 51, 52, 53, 54, 55, 56, 57, 58, 59, 60, 61, 62, 63, 64, 65, 66, 67, 68, 69, 70, 71, 72, 73, 74, 75, 76, 77, 78, 79, 80, 81, 82, 83, 84, 85, 86, 87, 88, 89, 90, 91, 92, 93, 94, 95, 96, 97, 98, 99, 100, 101, 102, 103, 104, 105, 106, 107, 108, 109, 110, 111, 112, 113, 114, 115, 116, 117, 118, 119, 120, 121, 122, 123, 124, 125, 126, 127, 128, 129, 130, 131, 132, 133, 134, 135, 136, 137, 138, 139, 140, 141, 142, 143, 144, 145, 146, 147, 148, 149, 150, 151, 152, 153, 154, 155, 156, 157, 158, 159, 160, 161, 162, 163, 164, 165, 166, 167, 168, 169, 170, 171, 172, 173, 174, 175, 176, 177, 178, 179, 180, 181, 182, 183, 184, 185, 186, 187, 188, 189, 190, 191, 192, 193, 194, 195, 196, 197, 198, 199, 200, 201, 202, 203, 204, 205, 206, 207, 208, 209, 210],
      "AcquisitionTime": ["172148.860000", "172150.867500", "172152.875000", "172154.882500", "172156.892500", "172158.900000", "172200.907500", "172202.915000", "172204.922500", "172206.932500", "172208.940000", "172210.947500", "172212.955000", "172214.962500", "172216.972500", "172218.980000", "172220.987500", "172222.995000", "172225.005000", "172227.012500", "172229.020000", "172231.027500", "172233.035000", "172235.045000", "172237.052500", "172239.060000", "172241.067500", "172243.075000", "172245.085000", "172247.092500", "172249.100000", "172251.107500", "172253.117500", "172255.125000", "172257.132500", "172259.140000", "172301.147500", "172303.157500", "172305.165000", "172307.172500", "172309.180000", "172311.187500", "172313.197500", "172315.205000", "172317.212500", "172319.220000", "172321.227500", "172323.237500", "172325.245000", "172327.252500", "172329.260000", "172331.270000", "172333.277500", "172335.285000", "172337.292500", "172339.300000", "172341.310000", "172343.317500", "172345.325000", "172347.332500", "172349.340000", "172351.350000", "172353.357500", "172355.365000", "172357.372500", "172359.382500", "172401.390000", "172403.397500", "172405.405000", "172407.412500", "172409.422500", "172411.430000", "172413.437500", "172415.445000", "172417.452500", "172419.462500", "172421.470000", "172423.477500", "172425.485000", "172427.495000", "172429.502500", "172431.510000", "172433.517500", "172435.525000", "172437.535000", "172439.542500", "172441.550000", "172443.557500", "172445.565000", "172447.575000", "172449.582500", "172451.590000", "172453.597500", "172455.605000", "172457.615000", "172459.622500", "172501.630000", "172503.637500", "172505.647500", "172507.655000", "172509.662500", "172511.670000", "172513.677500", "172515.687500", "172517.695000", "172519.702500", "172521.710000", "172523.717500", "172525.727500", "172527.735000", "172529.742500", "172531.750000", "172533.760000", "172535.767500", "172537.775000", "172539.782500", "172541.790000", "172543.800000", "172545.807500", "172547.815000", "172549.822500", "172551.830000", "172553.840000", "172555.847500", "172557.855000", "172559.862500", "172601.872500", "172603.880000", "172605.887500", "172607.895000", "172609.902500", "172611.912500", "172613.920000", "172615.927500", "172617.935000", "172619.942500", "172621.952500", "172623.960000", "172625.967500", "172627.975000", "172629.985000", "172631.992500", "172634.000000", "172636.007500", "172638.015000", "172640.025000", "172642.032500", "172644.040000", "172646.047500", "172648.055000", "172650.065000", "172652.072500", "172654.080000", "172656.087500", "172658.095000", "172700.105000", "172702.112500", "172704.120000", "172706.127500", "172708.137500", "172710.145000", "172712.152500", "172714.160000", "172716.167500", "172718.177500", "172720.185000", "172722.192500", "172724.200000", "172726.207500", "172728.217500", "172730.225000", "172732.232500", "172734.240000", "172736.250000", "172738.257500", "172740.265000", "172742.272500", "172744.280000", "172746.290000", "172748.297500", "172750.305000", "172752.312500", "172754.320000", "172756.330000", "172758.337500", "172800.345000", "172802.352500", "172804.362500", "172806.370000", "172808.377500", "172810.385000", "172812.392500", "172814.402500", "172816.410000", "172818.417500", "172820.425000", "172822.432500", "172824.442500", "172826.450000", "172828.457500", "172830.465000", "172832.472500", "172834.482500", "172836.490000", "172838.497500", "172840.505000", "172842.515000", "172844.522500", "172846.530000", "172848.537500"],
      "ContentTime": ["172152.062000", "172153.546000", "172155.546000", "172157.546000", "172159.546000", "172201.546000", "172203.546000", "172205.546000", "172207.546000", "172209.546000", "172211.546000", "172214.046000", "172215.546000", "172217.546000", "172219.546000", "172221.546000", "172223.546000", "172225.546000", "172227.546000", "172229.546000", "172231.546000", "172233.546000", "172235.546000", "172237.546000", "172239.546000", "172241.546000", "172243.546000", "172245.546000", "172247.546000", "172250.046000", "172251.546000", "172253.546000", "172255.546000", "172257.546000", "172259.546000", "172301.546000", "172303.546000", "172305.546000", "172307.546000", "172309.546000", "172311.546000", "172313.546000", "172315.546000", "172317.546000", "172319.546000", "172321.546000", "172323.546000", "172325.546000", "172327.546000", "172329.546000", "172331.546000", "172333.546000", "172335.546000", "172337.546000", "172339.546000", "172341.546000", "172344.046000", "172345.546000", "172347.546000", "172349.546000", "172351.546000", "172353.546000", "172355.546000", "172357.546000", "172359.546000", "172401.546000", "172403.546000", "172405.546000", "172407.546000", "172409.546000", "172411.546000", "172414.046000", "172415.546000", "172417.546000", "172419.546000", "172421.546000", "172423.546000", "172425.546000", "172427.546000", "172429.546000", "172431.546000", "172434.046000", "172435.546000", "172438.046000", "172439.546000", "172441.546000", "172443.546000", "172445.546000", "172447.546000", "172449.546000", "172451.546000", "172453.546000", "172455.546000", "172457.546000", "172459.546000", "172501.546000", "172504.046000", "172505.546000", "172507.546000", "172509.546000", "172511.546000", "172513.546000", "172515.546000", "172518.046000", "172519.546000", "172521.546000", "172523.546000", "172525.546000", "172528.046000", "172529.546000", "172531.546000", "172533.546000", "172535.546000", "172537.546000", "172539.546000", "172541.546000", "172543.546000", "172545.546000", "172547.546000", "172549.546000", "172551.546000", "172553.546000", "172555.546000", "172557.546000", "172559.546000", "172601.546000", "172603.546000", "172605.546000", "172607.546000", "172610.046000", "172611.546000", "172613.546000", "172615.546000", "172617.546000", "172619.546000", "172621.546000", "172623.546000", "172625.546000", "172627.546000", "172629.546000", "172632.046000", "172633.546000", "172635.546000", "172637.546000", "172639.546000", "172642.046000", "172643.546000", "172645.546000", "172647.546000", "172649.546000", "172651.546000", "172653.546000", "172655.546000", "172657.546000", "172700.046000", "172702.046000", "172703.546000", "172705.546000", "172707.546000", "172709.546000", "172711.546000", "172713.546000", "172715.546000", "172717.546000", "172719.546000", "172721.546000", "172723.546000", "172725.546000", "172727.546000", "172729.546000", "172732.046000", "172733.546000", "172735.546000", "172737.546000", "172739.546000", "172741.546000", "172744.046000", "172745.546000", "172747.546000", "172749.546000", "172751.546000", "172753.546000", "172755.546000", "172757.546000", "172759.546000", "172801.546000", "172803.546000", "172806.046000", "172807.546000", "172809.546000", "172811.546000", "172813.546000", "172815.546000", "172817.546000", "172819.546000", "172821.546000", "172823.546000", "172825.546000", "172827.546000", "172829.546000", "172831.546000", "172833.546000", "172836.046000", "172837.546000", "172839.546000", "172841.546000", "172843.546000", "172845.546000", "172848.046000", "172849.546000"],
      "InstanceCreationTime": ["172152.062000", "172153.546000", "172155.546000", "172157.546000", "172159.546000", "172201.546000", "172203.546000", "172205.546000", "172207.546000", "172209.546000", "172211.546000", "172214.046000", "172215.546000", "172217.546000", "172219.546000", "172221.546000", "172223.546000", "172225.546000", "172227.546000", "172229.546000", "172231.546000", "172233.546000", "172235.546000", "172237.546000", "172239.546000", "172241.546000", "172243.546000", "172245.546000", "172247.546000", "172250.046000", "172251.546000", "172253.546000", "172255.546000", "172257.546000", "172259.546000", "172301.546000", "172303.546000", "172305.546000", "172307.546000", "172309.546000", "172311.546000", "172313.546000", "172315.546000", "172317.546000", "172319.546000", "172321.546000", "172323.546000", "172325.546000", "172327.546000", "172329.546000", "172331.546000", "172333.546000", "172335.546000", "172337.546000", "172339.546000", "172341.546000", "172344.046000", "172345.546000", "172347.546000", "172349.546000", "172351.546000", "172353.546000", "172355.546000", "172357.546000", "172359.546000", "172401.546000", "172403.546000", "172405.546000", "172407.546000", "172409.546000", "172411.546000", "172414.046000", "172415.546000", "172417.546000", "172419.546000", "172421.546000", "172423.546000", "172425.546000", "172427.546000", "172429.546000", "172431.546000", "172434.046000", "172435.546000", "172438.046000", "172439.546000", "172441.546000", "172443.546000", "172445.546000", "172447.546000", "172449.546000", "172451.546000", "172453.546000", "172455.546000", "172457.546000", "172459.546000", "172501.546000", "172504.046000", "172505.546000", "172507.546000", "172509.546000", "172511.546000", "172513.546000", "172515.546000", "172518.046000", "172519.546000", "172521.546000", "172523.546000", "172525.546000", "172528.046000", "172529.546000", "172531.546000", "172533.546000", "172535.546000", "172537.546000", "172539.546000", "172541.546000", "172543.546000", "172545.546000", "172547.546000", "172549.546000", "172551.546000", "172553.546000", "172555.546000", "172557.546000", "172559.546000", "172601.546000", "172603.546000", "172605.546000", "172607.546000", "172610.046000", "172611.546000", "172613.546000", "172615.546000", "172617.546000", "172619.546000", "172621.546000", "172623.546000", "172625.546000", "172627.546000", "172629.546000", "172632.046000", "172633.546000", "172635.546000", "172637.546000", "172639.546000", "172642.046000", "172643.546000", "172645.546000", "172647.546000", "172649.546000", "172651.546000", "172653.546000", "172655.546000", "172657.546000", "172700.046000", "172702.046000", "172703.546000", "172705.546000", "172707.546000", "172709.546000", "172711.546000", "172713.546000", "172715.546000", "172717.546000", "172719.546000", "172721.546000", "172723.546000", "172725.546000", "172727.546000", "172729.546000", "172732.046000", "172733.546000", "172735.546000", "172737.546000", "172739.546000", "172741.546000", "172744.046000", "172745.546000", "172747.546000", "172749.546000", "172751.546000", "172753.546000", "172755.546000", "172757.546000", "172759.546000", "172801.546000", "172803.546000", "172806.046000", "172807.546000", "172809.546000", "172811.546000", "172813.546000", "172815.546000", "172817.546000", "172819.546000", "172821.546000", "172823.546000", "172825.546000", "172827.546000", "172829.546000", "172831.546000", "172833.546000", "172836.046000", "172837.546000", "172839.546000", "172841.546000", "172843.546000", "172845.546000", "172848.046000", "172849.546000"],
      "InstanceNumber": [1, 2, 3, 4, 5, 6, 7, 8, 9, 10, 11, 12, 13, 14, 15, 16, 17, 18, 19, 20, 21, 22, 23, 24, 25, 26, 27, 28, 29, 30, 31, 32, 33, 34, 35, 36, 37, 38, 39, 40, 41, 42, 43, 44, 45, 46, 47, 48, 49, 50, 51, 52, 53, 54, 55, 56, 57, 58, 59, 60, 61, 62, 63, 64, 65, 66, 67, 68, 69, 70, 71, 72, 73, 74, 75, 76, 77, 78, 79, 80, 81, 82, 83, 84, 85, 86, 87, 88, 89, 90, 91, 92, 93, 94, 95, 96, 97, 98, 99, 100, 101, 102, 103, 104, 105, 106, 107, 108, 109, 110, 111, 112, 113, 114, 115, 116, 117, 118, 119, 120, 121, 122, 123, 124, 125, 126, 127, 128, 129, 130, 131, 132, 133, 134, 135, 136, 137, 138, 139, 140, 141, 142, 143, 144, 145, 146, 147, 148, 149, 150, 151, 152, 153, 154, 155, 156, 157, 158, 159, 160, 161, 162, 163, 164, 165, 166, 167, 168, 169, 170, 171, 172, 173, 174, 175, 176, 177, 178, 179, 180, 181, 182, 183, 184, 185, 186, 187, 188, 189, 190, 191, 192, 193, 194, 195, 196, 197, 198, 199, 200, 201, 202, 203, 204, 205, 206, 207, 208, 209, 210],
      "LargestImagePixelValue": [1856, 1933, 1684, 1657, 1672, 1722, 1645, 1660, 1689, 1661, 1654, 1668, 1848, 1719, 1662, 1629, 1665, 1642, 1655, 1642, 1631, 1661, 1648, 1675, 1681, 1650, 1809, 1664, 1658, 1693, 1836, 1619, 1850, 1713, 1712, 1658, 1928, 1759, 1646, 1657, 1659, 1678, 1653, 1934, 1884, 1663, 1633, 1666, 1667, 1644, 1659, 1653, 1955, 1631, 1664, 1666, 1662, 1897, 1644, 1651, 1690, 1683, 1655, 1895, 1946, 1636, 1623, 1620, 1813, 1639, 1661, 1674, 1643, 1793, 1673, 1675, 1672, 1671, 1855, 1884, 1680, 1671, 1705, 1951, 1647, 1632, 1624, 1663, 1704, 2003, 1889, 1648, 1673, 1648, 1628, 1642, 1642, 1628, 1619, 1609, 1663, 1633, 1647, 1687, 1792, 1768, 1627, 1810, 1650, 1668, 1681, 2045, 1633, 1637, 1652, 1645, 1627, 1631, 1647, 1681, 1903, 1651, 1645, 1664, 1694, 1788, 1673, 1694, 1690, 1946, 1812, 1640, 1677, 1617, 1871, 1606, 1672, 1678, 1797, 1651, 1678, 1668, 1684, 1673, 1671, 1667, 1674, 1754, 1644, 1629, 1681, 1801, 1856, 1930, 1886, 1666, 1669, 1686, 1659, 1627, 1637, 1633, 1632, 1644, 1649, 1997, 1669, 1671, 1680, 1679, 1664, 1662, 1663, 1704, 1667, 1651, 1636, 1641, 1650, 1861, 1686, 1682, 1692, 1650, 1733, 1627, 1671, 1679, 1653, 1622, 1627, 1644, 1635, 1661, 1682, 1923, 1628, 1617, 1625, 1683, 1688, 1651, 1678, 1821, 1883, 1876, 1858, 1637, 1665, 1663],
      "WindowCenter": [742.0, 739.0, 736.0, 736.0, 736.0, 735.0, 734.0, 735.0, 736.0, 736.0, 736.0, 736.0, 737.0, 736.0, 734.0, 734.0, 734.0, 735.0, 734.0, 735.0, 735.0, 735.0, 735.0, 735.0, 735.0, 736.0, 736.0, 734.0, 735.0, 736.0, 736.0, 735.0, 737.0, 738.0, 740.0, 738.0, 736.0, 734.0, 735.0, 736.0, 737.0, 737.0, 737.0, 738.0, 738.0, 738.0, 738.0, 737.0, 736.0, 736.0, 736.0, 736.0, 737.0, 735.0, 736.0, 738.0, 738.0, 737.0, 735.0, 735.0, 739.0, 740.0, 738.0, 737.0, 734.0, 734.0, 735.0, 735.0, 736.0, 736.0, 736.0, 736.0, 736.0, 737.0, 737.0, 738.0, 738.0, 737.0, 737.0, 737.0, 737.0, 738.0, 738.0, 737.0, 734.0, 735.0, 735.0, 736.0, 736.0, 737.0, 736.0, 735.0, 736.0, 736.0, 736.0, 735.0, 735.0, 735.0, 735.0, 736.0, 737.0, 737.0, 737.0, 737.0, 738.0, 737.0, 736.0, 736.0, 735.0, 737.0, 737.0, 738.0, 736.0, 736.0, 737.0, 737.0, 736.0, 736.0, 738.0, 738.0, 738.0, 736.0, 738.0, 739.0, 740.0, 739.0, 738.0, 740.0, 741.0, 740.0, 737.0, 734.0, 734.0, 734.0, 736.0, 735.0, 739.0, 739.0, 737.0, 735.0, 734.0, 735.0, 736.0, 736.0, 737.0, 738.0, 739.0, 740.0, 739.0, 739.0, 739.0, 738.0, 738.0, 738.0, 737.0, 736.0, 736.0, 737.0, 736.0, 736.0, 737.0, 737.0, 737.0, 738.0, 738.0, 739.0, 737.0, 739.0, 739.0, 738.0, 737.0, 738.0, 737.0, 737.0, 737.0, 737.0, 737.0, 737.0, 737.0, 737.0, 737.0, 737.0, 737.0, 737.0, 738.0, 738.0, 738.0, 737.0, 737.0, 736.0, 738.0, 739.0, 739.0, 739.0, 739.0, 739.0, 736.0, 736.0, 737.0, 739.0, 740.0, 740.0, 741.0, 741.0, 740.0, 739.0, 738.0, 738.0, 736.0, 737.0],
      "WindowWidth": [1550.0, 1541.0, 1533.0, 1535.0, 1534.0, 1532.0, 1529.0, 1532.0, 1535.0, 1534.0, 1533.0, 1534.0, 1536.0, 1533.0, 1530.0, 1529.0, 1530.0, 1531.0, 1530.0, 1531.0, 1531.0, 1532.0, 1531.0, 1532.0, 1533.0, 1533.0, 1532.0, 1530.0, 1532.0, 1534.0, 1534.0, 1532.0, 1537.0, 1540.0, 1542.0, 1538.0, 1534.0, 1529.0, 1531.0, 1534.0, 1535.0, 1536.0, 1536.0, 1539.0, 1538.0, 1539.0, 1537.0, 1535.0, 1534.0, 1534.0, 1533.0, 1533.0, 1535.0, 1531.0, 1535.0, 1538.0, 1537.0, 1536.0, 1531.0, 1533.0, 1541.0, 1544.0, 1538.0, 1535.0, 1530.0, 1528.0, 1531.0, 1532.0, 1535.0, 1534.0, 1534.0, 1534.0, 1535.0, 1536.0, 1537.0, 1540.0, 1539.0, 1537.0, 1537.0, 1536.0, 1538.0, 1540.0, 1538.0, 1537.0, 1530.0, 1531.0, 1533.0, 1535.0, 1534.0, 1536.0, 1534.0, 1531.0, 1535.0, 1535.0, 1533.0, 1533.0, 1532.0, 1531.0, 1531.0, 1533.0, 1535.0, 1535.0, 1536.0, 1538.0, 1539.0, 1536.0, 1534.0, 1535.0, 1533.0, 1536.0, 1537.0, 1539.0, 1533.0, 1535.0, 1537.0, 1536.0, 1534.0, 1535.0, 1538.0, 1539.0, 1539.0, 1534.0, 1539.0, 1542.0, 1543.0, 1541.0, 1538.0, 1544.0, 1545.0, 1542.0, 1536.0, 1530.0, 1530.0, 1530.0, 1534.0, 1533.0, 1542.0, 1541.0, 1536.0, 1531.0, 1531.0, 1532.0, 1534.0, 1535.0, 1535.0, 1539.0, 1541.0, 1543.0, 1542.0, 1541.0, 1541.0, 1540.0, 1539.0, 1538.0, 1537.0, 1534.0, 1535.0, 1536.0, 1534.0, 1534.0, 1535.0, 1536.0, 1536.0, 1539.0, 1538.0, 1540.0, 1536.0, 1540.0, 1541.0, 1539.0, 1537.0, 1538.0, 1537.0, 1537.0, 1537.0, 1536.0, 1536.0, 1537.0, 1535.0, 1537.0, 1538.0, 1538.0, 1536.0, 1536.0, 1538.0, 1539.0, 1539.0, 1536.0, 1536.0, 1534.0, 1539.0, 1540.0, 1540.0, 1541.0, 1540.0, 1541.0, 1534.0, 1534.0, 1536.0, 1541.0, 1543.0, 1544.0, 1545.0, 1544.0, 1543.0, 1540.0, 1539.0, 1538.0, 1534.0, 1537.0]
    },
    "slices": {}
  }
}