{
  "AcquisitionMatrixPE": 64,
  "AcquisitionNumber": 1,
  "AcquisitionTime": "11:07:23.452500",
  "BaseResolution": 64,
  "BidsGuess": [
    "fmap",
    "_acq-fm2_phasediff"
  ],
  "CoilCombinationMethod": "Adaptive Combine",
  "CoilString": "C:HEA;HEP",
  "ConversionSoftware": "dcm2niix",
  "ConversionSoftwareVersion": "v1.0.20240202",
  "DeviceSerialNumber": "35119",
  "DwellTime": 0.00003,
  "EchoNumber": 2,
  "EchoTime": 0.00765,
  "EchoTime1": 0.00519,
  "EchoTime2": 0.00765,
  "FlipAngle": 60,
  "HeudiconvVersion": "1.1.6",
  "ImageComments": "V",
  "ImageOrientationPatientDICOM": [
    0.99996,
    0.004146,
    0.0079,
    0,
    0.885469,
    -0.464699
  ],
  "ImageOrientationText": "Tra>Cor(-27.7)>Sag(0.5)",
  "ImageType": [
    "ORIGINAL",
    "PRIMARY",
    "P",
    "ND",
    "PHASE"
  ],
  "ImagingFrequency": 123.251781,
  "InPlanePhaseEncodingDirectionDICOM": "COL",
  "InstitutionAddress": "Chaucer Road  15,Cambridge,UK,GB,CB2 2EF",
  "InstitutionName": "MRC-CBU",
  "IntendedFor": [
    "ses-mri/func/sub-02_ses-mri_task-facerecognition_run-01_bold.nii.gz",
    "ses-mri/func/sub-02_ses-mri_task-facerecognition_run-02_bold.nii.gz",
    "ses-mri/func/sub-02_ses-mri_task-facerecognition_run-03_bold.nii.gz",
    "ses-mri/func/sub-02_ses-mri_task-facerecognition_run-04_bold.nii.gz",
    "ses-mri/func/sub-02_ses-mri_task-facerecognition_run-05_bold.nii.gz",
    "ses-mri/func/sub-02_ses-mri_task-facerecognition_run-06_bold.nii.gz",
    "ses-mri/func/sub-02_ses-mri_task-facerecognition_run-07_bold.nii.gz",
    "ses-mri/func/sub-02_ses-mri_task-facerecognition_run-08_bold.nii.gz",
    "ses-mri/func/sub-02_ses-mri_task-facerecognition_run-09_bold.nii.gz"
  ],
  "MRAcquisitionType": "2D",
  "MagneticFieldStrength": 3,
  "Manufacturer": "Siemens",
  "ManufacturersModelName": "TrioTim",
  "MatrixCoilMode": "SENSE",
  "Modality": "MR",
  "NonlinearGradientCorrection": false,
  "PartialFourier": 1,
  "PatientPosition": "HFS",
  "PercentPhaseFOV": 100,
  "PercentSampling": 100,
  "PhaseEncodingDirection": "j-",
  "PhaseEncodingSteps": 64,
  "PhaseResolution": 1,
  "PixelBandwidth": 260,
  "ProcedureStepDescription": "CBU^Neuroimaging",
  "ProtocolName": "CBU_FieldMapping",
  "PulseSequenceDetails": "%SiemensSeq%\\gre_field_mapping",
  "ReceiveCoilName": "HeadMatrix",
  "ReconMatrixPE": 64,
  "RepetitionTime": 0.4,
  "SAR": 0.229659,
  "ScanningSequence": "GR",
  "SequenceName": "*fm2d2r",
  "SequenceVariant": "SP",
  "SeriesDescription": "CBU_FieldMapping",
  "SeriesNumber": 13,
  "ShimSetting": [
    -7804,
    -8718,
    -2025,
    813,
    324,
    454,
    129,
    9
  ],
  "SliceThickness": 3,
  "SliceTiming": [
    0,
    0.20312,
    0.01562,
    0.21875,
    0.02344,
    0.23438,
    0.03906,
    0.24219,
    0.04688,
    0.25781,
    0.0625,
    0.26562,
    0.07031,
    0.28125,
    0.08594,
    0.28906,
    0.09375,
    0.30469,
    0.10938,
    0.32031,
    0.125,
    0.32812,
    0.13281,
    0.33594,
    0.14844,
    0.35156,
    0.15625,
    0.36719,
    0.17188,
    0.375,
    0.17969,
    0.39062,
    0.19531
  ],
  "SoftwareVersions": "syngo MR B15",
  "SpacingBetweenSlices": 3.9,
  "StationName": "MRC35119",
  "TxRefAmp": 333.583,
  "dcmmeta_affine": [
    [
      -2.999880075454712,
      0.0,
      0.034797001630067825,
      100.57636260986328
    ],
    [
      -0.012438000179827213,
      2.656407117843628,
      -1.8122539520263672,
      -47.336814880371094
    ],
    [
      0.02370000071823597,
      1.3940969705581665,
      3.45318603515625,
      -82.5184326171875
    ],
    [
      0.0,
      0.0,
      0.0,
      1.0
    ]
  ],
  "dcmmeta_reorient_transform": [
    [
      0.0,
      -1.0,
      0.0,
      63.0
    ],
    [
      1.0,
      0.0,
      0.0,
      0.0
    ],
    [
      0.0,
      0.0,
      -1.0,
      32.0
    ],
    [
      0.0,
      0.0,
      0.0,
      1.0
    ]
  ],
  "dcmmeta_shape": [
    64,
    64,
    33
  ],
  "dcmmeta_slice_dim": 2,
  "dcmmeta_version": 0.6,
  "global": {
    "const": {
      "AcquisitionMatrix": [
        64,
        0,
        0,
        64
      ],
      "AcquisitionNumber": 1,
      "AngioFlag": "N",
      "BitsAllocated": 16,
      "BitsStored": 12,
      "Columns": 64,
      "EchoNumbers": 2,
      "EchoTime": 7.65,
      "EchoTrainLength": 1,
      "FlipAngle": 60.0,
      "HighBit": 11,
      "ImageOrientationPatient": [
        0.99996,
        0.004146,
        0.0079,
        -0.0,
        0.885469,
        -0.464699
      ],
      "ImageType": [
        "ORIGINAL",
        "PRIMARY",
        "P",
        "ND"
      ],
      "ImagedNucleus": "1H",
      "ImagingFrequency": 123.251781,
      "InPlanePhaseEncodingDirection": "COL",
      "MRAcquisitionType": "2D",
      "MagneticFieldStrength": 3.0,
      "Manufacturer": "SIEMENS",
      "ManufacturerModelName": "TrioTim",
      "Modality": "MR",
      "NumberOfAverages": 1.0,
      "NumberOfPhaseEncodingSteps": 64,
      "PercentPhaseFieldOfView": 100.0,
      "PercentSampling": 100.0,
      "PerformedProcedureStepStartTime": "094337.531000",
      "PhotometricInterpretation": "MONOCHROME2",
      "PixelAspectRatio": [
        1,
        1
      ],
      "PixelBandwidth": 260.0,
      "PixelRepresentation": 0,
      "PixelSpacing": [
        3.0,
        3.0
      ],
      "ProtocolName": "CBU_FieldMapping",
      "RepetitionTime": 400.0,
      "RescaleIntercept": -4096.0,
      "RescaleSlope": 2.0,
      "RescaleType": "US",
      "Rows": 64,
      "SAR": 0.229659,
      "SamplesPerPixel": 1,
      "ScanningSequence": "GR",
      "SequenceName": "*fm2d2r",
      "SequenceVariant": "SP",
      "SeriesDescription": "CBU_FieldMapping",
      "SeriesNumber": 13,
      "SeriesTime": "110816.421000",
      "SliceThickness": 3.0,
      "SoftwareVersions": "syngo MR B15",
      "SpacingBetweenSlices": 3.9,
      "SpecificCharacterSet": "ISO_IR 100",
      "StudyID": "1",
      "StudyTime": "094337.468000",
      "TransmitCoilName": "Body",
      "VariableFlipAngleFlag": "N",
      "WindowCenterWidthExplanation": "Algo1",
      "dBdt": 0.0
    },
    "slices": {
      "AcquisitionTime": [
        "110723.452500",
        "110723.660000",
        "110723.465000",
        "110723.672500",
        "110723.477500",
        "110723.685000",
        "110723.490000",
        "110723.697500",
        "110723.502500",
        "110723.707500",
        "110723.512500",
        "110723.720000",
        "110723.525000",
        "110723.732500",
        "110723.537500",
        "110723.745000",
        "110723.550000",
        "110723.757500",
        "110723.562500",
        "110723.770000",
        "110723.575000",
        "110723.782500",
        "110723.587500",
        "110723.792500",
        "110723.600000",
        "110723.805000",
        "110723.610000",
        "110723.817500",
        "110723.622500",
        "110723.830000",
        "110723.635000",
        "110723.842500",
        "110723.647500"
      ],
      "ContentTime": [
        "110816.421000",
        "110817.843000",
        "110816.453000",
        "110817.843000",
        "110817.734000",
        "110817.859000",
        "110817.750000",
        "110817.875000",
        "110817.750000",
        "110817.875000",
        "110817.750000",
        "110817.875000",
        "110817.750000",
        "110817.890000",
        "110817.765000",
        "110817.890000",
        "110817.765000",
        "110817.906000",
        "110817.781000",
        "110817.906000",
        "110817.781000",
        "110817.906000",
        "110817.812000",
        "110817.906000",
        "110817.812000",
        "110818.046000",
        "110817.812000",
        "110818.046000",
        "110817.828000",
        "110818.062000",
        "110817.843000",
        "110818.109000",
        "110817.843000"
      ],
      "CsaImage.GSWDDataType": [
        "predicted",
        "measured",
        "predicted",
        "measured",
        "measured",
        "measured",
        "measured",
        "measured",
        "measured",
        "measured",
        "measured",
        "measured",
        "measured",
        "measured",
        "measured",
        "measured",
        "measured",
        "measured",
        "measured",
        "measured",
        "measured",
        "measured",
        "measured",
        "measured",
        "measured",
        "measured",
        "measured",
        "measured",
        "measured",
        "measured",
        "measured",
        "measured",
        "measured"
      ],
      "CsaImage.ICE_Dims": [
        "X_2_1_1_1_1_1_1_1_1_1_1_46",
        "X_2_1_1_1_1_1_18_1_1_2_1_46",
        "X_2_1_1_1_1_1_2_1_1_3_1_46",
        "X_2_1_1_1_1_1_19_1_1_4_1_46",
        "X_2_1_1_1_1_1_3_1_1_5_1_46",
        "X_2_1_1_1_1_1_20_1_1_6_1_46",
        "X_2_1_1_1_1_1_4_1_1_7_1_46",
        "X_2_1_1_1_1_1_21_1_1_8_1_46",
        "X_2_1_1_1_1_1_5_1_1_9_1_46",
        "X_2_1_1_1_1_1_22_1_1_10_1_46",
        "X_2_1_1_1_1_1_6_1_1_11_1_46",
        "X_2_1_1_1_1_1_23_1_1_12_1_46",
        "X_2_1_1_1_1_1_7_1_1_13_1_46",
        "X_2_1_1_1_1_1_24_1_1_14_1_46",
        "X_2_1_1_1_1_1_8_1_1_15_1_46",
        "X_2_1_1_1_1_1_25_1_1_16_1_46",
        "X_2_1_1_1_1_1_9_1_1_17_1_46",
        "X_2_1_1_1_1_1_26_1_1_18_1_46",
        "X_2_1_1_1_1_1_10_1_1_19_1_46",
        "X_2_1_1_1_1_1_27_1_1_20_1_46",
        "X_2_1_1_1_1_1_11_1_1_21_1_46",
        "X_2_1_1_1_1_1_28_1_1_22_1_46",
        "X_2_1_1_1_1_1_12_1_1_23_1_46",
        "X_2_1_1_1_1_1_29_1_1_24_1_46",
        "X_2_1_1_1_1_1_13_1_1_25_1_46",
        "X_2_1_1_1_1_1_30_1_1_26_1_46",
        "X_2_1_1_1_1_1_14_1_1_27_1_46",
        "X_2_1_1_1_1_1_31_1_1_28_1_46",
        "X_2_1_1_1_1_1_15_1_1_29_1_46",
        "X_2_1_1_1_1_1_32_1_1_30_1_46",
        "X_2_1_1_1_1_1_16_1_1_31_1_46",
        "X_2_1_1_1_1_1_33_1_1_32_1_46",
        "X_2_1_1_1_1_1_17_1_1_33_1_46"
      ],
      "CsaImage.ProtocolSliceNumber": [
        0,
        1,
        2,
        3,
        4,
        5,
        6,
        7,
        8,
        9,
        10,
        11,
        12,
        13,
        14,
        15,
        16,
        17,
        18,
        19,
        20,
        21,
        22,
        23,
        24,
        25,
        26,
        27,
        28,
        29,
        30,
        31,
        32
      ],
      "CsaImage.RFSWDDataType": [
        "predicted",
        "measured",
        "predicted",
        "measured",
        "measured",
        "measured",
        "measured",
        "measured",
        "measured",
        "measured",
        "measured",
        "measured",
        "measured",
        "measured",
        "measured",
        "measured",
        "measured",
        "measured",
        "measured",
        "measured",
        "measured",
        "measured",
        "measured",
        "measured",
        "measured",
        "measured",
        "measured",
        "measured",
        "measured",
        "measured",
        "measured",
        "measured",
        "measured"
      ],
      "CsaImage.SliceMeasurementDuration": [
        50602.5,
        50602.5,
        50602.5,
        50602.5,
        50602.5,
        50602.5,
        50602.5,
        50600.0,
        50602.5,
        50602.5,
        50602.5,
        50602.5,
        50602.5,
        50602.5,
        50602.5,
        50602.5,
        50602.5,
        50602.5,
        50602.5,
        50602.5,
        50602.5,
        50602.5,
        50602.5,
        50602.5,
        50602.5,
        50602.5,
        50602.5,
        50602.5,
        50602.5,
        50602.5,
        50602.5,
        50602.5,
        50602.5
      ],
      "CsaImage.SlicePosition_PCS": [
        [
          -100.57636473,
          -120.01679087,
          5.30951677
        ],
        [
          -100.61116192,
          -118.20453882,
          8.76271044
        ],
        [
          -100.64595863,
          -116.39228487,
          12.21590029
        ],
        [
          -100.68075582,
          -114.58003283,
          15.66909205
        ],
        [
          -100.71555254,
          -112.76778078,
          19.1222838
        ],
        [
          -100.75034973,
          -110.95552683,
          22.57547365
        ],
        [
          -100.78514644,
          -109.14327478,
          26.02866541
        ],
        [
          -100.81994364,
          -107.33102083,
          29.48185621
        ],
        [
          -100.85474083,
          -105.51876879,
          32.93504702
        ],
        [
          -100.88953754,
          -103.70651484,
          36.3882383
        ],
        [
          -100.92433473,
          -101.89426279,
          39.84142958
        ],
        [
          -100.95913145,
          -100.08200979,
          43.29462062
        ],
        [
          -100.99392864,
          -98.26975679,
          46.74781166
        ],
        [
          -101.02872536,
          -96.4575038,
          50.20100294
        ],
        [
          -101.06352255,
          -94.6452508,
          53.65419375
        ],
        [
          -101.09831974,
          -92.83299828,
          57.10738455
        ],
        [
          -101.13311645,
          -91.02074528,
          60.56057535
        ],
        [
          -101.16791365,
          -89.20849252,
          64.01376711
        ],
        [
          -101.20271036,
          -87.39623964,
          67.46695887
        ],
        [
          -101.23750755,
          -85.58398674,
          70.92014872
        ],
        [
          -101.27230427,
          -83.77173388,
          74.37334047
        ],
        [
          -101.30710146,
          -81.959481,
          77.82653032
        ],
        [
          -101.34189817,
          -80.14722824,
          81.27972399
        ],
        [
          -101.37669536,
          -78.33497524,
          84.73291384
        ],
        [
          -101.41149256,
          -76.52272272,
          88.18610369
        ],
        [
          -101.44628927,
          -74.71046972,
          91.63929735
        ],
        [
          -101.48108646,
          -72.89821672,
          95.0924872
        ],
        [
          -101.51588318,
          -71.08596373,
          98.54567705
        ],
        [
          -101.55068037,
          -69.27371073,
          101.99887072
        ],
        [
          -101.58547708,
          -67.46145868,
          105.45206057
        ],
        [
          -101.62027428,
          -65.64920473,
          108.90525042
        ],
        [
          -101.65507099,
          -63.83695269,
          112.35844408
        ],
        [
          -101.68986818,
          -62.02469873,
          115.81163012
        ]
      ],
      "CsaImage.TimeAfterStart": [
        0.4025,
        0.61,
        0.415,
        0.6225,
        0.4275,
        0.635,
        0.44,
        0.6475,
        0.4525,
        0.66,
        0.465,
        0.67,
        0.475,
        0.6825,
        0.4875,
        0.695,
        0.5,
        0.7075,
        0.5125,
        0.72,
        0.525,
        0.7325,
        0.5375,
        0.745,
        0.55,
        0.755,
        0.5625,
        0.7675,
        0.5725,
        0.78,
        0.585,
        0.7925,
        0.5975
      ],
      "ImagePositionPatient": [
        [
          -100.576365,
          -120.016791,
          5.309517
        ],
        [
          -100.611162,
          -118.204539,
          8.76271
        ],
        [
          -100.645959,
          -116.392285,
          12.2159
        ],
        [
          -100.680756,
          -114.580033,
          15.669092
        ],
        [
          -100.715553,
          -112.767781,
          19.122284
        ],
        [
          -100.75035,
          -110.955527,
          22.575474
        ],
        [
          -100.785146,
          -109.143275,
          26.028665
        ],
        [
          -100.819944,
          -107.331021,
          29.481856
        ],
        [
          -100.854741,
          -105.518769,
          32.935047
        ],
        [
          -100.889538,
          -103.706515,
          36.388238
        ],
        [
          -100.924335,
          -101.894263,
          39.84143
        ],
        [
          -100.959131,
          -100.08201,
          43.294621
        ],
        [
          -100.993929,
          -98.269757,
          46.747812
        ],
        [
          -101.028725,
          -96.457504,
          50.201003
        ],
        [
          -101.063523,
          -94.645251,
          53.654194
        ],
        [
          -101.09832,
          -92.832998,
          57.107385
        ],
        [
          -101.133116,
          -91.020745,
          60.560575
        ],
        [
          -101.167914,
          -89.208493,
          64.013767
        ],
        [
          -101.20271,
          -87.39624,
          67.466959
        ],
        [
          -101.237508,
          -85.583987,
          70.920149
        ],
        [
          -101.272304,
          -83.771734,
          74.37334
        ],
        [
          -101.307101,
          -81.959481,
          77.82653
        ],
        [
          -101.341898,
          -80.147228,
          81.279724
        ],
        [
          -101.376695,
          -78.334975,
          84.732914
        ],
        [
          -101.411493,
          -76.522723,
          88.186104
        ],
        [
          -101.446289,
          -74.71047,
          91.639297
        ],
        [
          -101.481086,
          -72.898217,
          95.092487
        ],
        [
          -101.515883,
          -71.085964,
          98.545677
        ],
        [
          -101.55068,
          -69.273711,
          101.998871
        ],
        [
          -101.585477,
          -67.461459,
          105.452061
        ],
        [
          -101.620274,
          -65.649205,
          108.90525
        ],
        [
          -101.655071,
          -63.836953,
          112.358444
        ],
        [
          -101.689868,
          -62.024699,
          115.81163
        ]
      ],
      "InstanceCreationTime": [
        "110816.421000",
        "110817.843000",
        "110816.453000",
        "110817.843000",
        "110817.734000",
        "110817.859000",
        "110817.750000",
        "110817.875000",
        "110817.750000",
        "110817.875000",
        "110817.750000",
        "110817.875000",
        "110817.750000",
        "110817.890000",
        "110817.765000",
        "110817.890000",
        "110817.765000",
        "110817.906000",
        "110817.781000",
        "110817.906000",
        "110817.781000",
        "110817.906000",
        "110817.812000",
        "110817.906000",
        "110817.812000",
        "110818.046000",
        "110817.812000",
        "110818.046000",
        "110817.828000",
        "110818.062000",
        "110817.843000",
        "110818.109000",
        "110817.843000"
      ],
      "InstanceNumber": [
        1,
        2,
        3,
        4,
        5,
        6,
        7,
        8,
        9,
        10,
        11,
        12,
        13,
        14,
        15,
        16,
        17,
        18,
        19,
        20,
        21,
        22,
        23,
        24,
        25,
        26,
        27,
        28,
        29,
        30,
        31,
        32,
        33
      ],
      "LargestImagePixelValue": [
        4093,
        4091,
        4090,
        4089,
        4086,
        4091,
        4085,
        4093,
        4086,
        4081,
        4091,
        4080,
        4092,
        4081,
        4091,
        4088,
        4087,
        4093,
        4080,
        4092,
        4090,
        4084,
        4090,
        4089,
        4089,
        4094,
        4088,
        4092,
        4090,
        4094,
        4091,
        4093,
        4094
      ],
      "SliceLocation": [
        -50.170833,
        -46.270831,
        -42.370832,
        -38.470832,
        -34.570831,
        -30.670832,
        -26.770832,
        -22.870832,
        -18.970832,
        -15.070831,
        -11.170832,
        -7.270832,
        -3.370832,
        0.529169,
        4.429168,
        8.329168,
        12.229168,
        16.129168,
        20.029169,
        23.929168,
        27.829168,
        31.729167,
        35.62917,
        39.529168,
        43.429167,
        47.32917,
        51.229169,
        55.129167,
        59.02917,
        62.929168,
        66.829168,
        70.72917,
        74.629166
      ],
      "SmallestImagePixelValue": [
        0,
        9,
        2,
        8,
        3,
        1,
        0,
        1,
        14,
        0,
        8,
        10,
        0,
        8,
        1,
        16,
        16,
        3,
        9,
        7,
        2,
        1,
        4,
        7,
        4,
        0,
        2,
        2,
        3,
        1,
        0,
        0,
        0
      ],
      "WindowCenter": [
        -510.0,
        -434.0,
        -362.0,
        -386.0,
        -358.0,
        -362.0,
        -382.0,
        -402.0,
        -406.0,
        -362.0,
        -308.0,
        -246.0,
        -186.0,
        -136.0,
        -96.0,
        -76.0,
        -64.0,
        -82.0,
        -68.0,
        -74.0,
        -54.0,
        -94.0,
        -134.0,
        -146.0,
        -210.0,
        -244.0,
        -324.0,
        -316.0,
        -320.0,
        -362.0,
        -426.0,
        -352.0,
        -440.0
      ],
      "WindowWidth": [
        4560.0,
        4426.0,
        4392.0,
        4334.0,
        4156.0,
        4194.0,
        4134.0,
        4064.0,
        4020.0,
        3932.0,
        3928.0,
        3916.0,
        3864.0,
        3848.0,
        3870.0,
        3914.0,
        3912.0,
        3972.0,
        3928.0,
        3952.0,
        3884.0,
        3924.0,
        3948.0,
        3944.0,
        3978.0,
        4064.0,
        4092.0,
        4248.0,
        4364.0,
        4446.0,
        4526.0,
        4580.0,
        4750.0
      ]
    }
  }
}
