{
  "AcquisitionMatrixPE": 64,
  "AcquisitionNumber": 1,
  "AcquisitionTime": "10:08:5.770000",
  "BandwidthPerPixelPhaseEncode": 30.637,
  "BaseResolution": 64,
  "BidsGuess": [
    "func",
    "_acq-epfid2_dir-AP_run-3_bold"
],
  "CoilCombinationMethod": "Sum of Squares",
  "CoilString": "C:HEA;HEP",
  "ConversionSoftware": "dcm2niix",
  "ConversionSoftwareVersion": "v1.0.20240202",
  "DerivedVendorReportedEchoSpacing": 0.000510004,
  "DeviceSerialNumber": "35119",
  "DwellTime": 3.5e-06,
  "EchoTime": 0.03,
  "EffectiveEchoSpacing": 0.000510004,
  "FlipAngle": 78,
  "HeudiconvVersion": "1.1.6",
  "ImageComments": "V",
  "ImageOrientationPatientDICOM": [0.99892, 0.0184, 0.042669, 0, 0.918262, -0.395973],
  "ImageOrientationText": "Tra>Cor(-23.3)>Sag(2.7)",
  "ImageType": [
    "ORIGINAL",
    "PRIMARY",
    "M",
    "ND",
    "MOSAIC"
],
  "ImagingFrequency": 123.251709,
  "InPlanePhaseEncodingDirectionDICOM": "COL",
  "InstitutionAddress": "Chaucer Road  15,Cambridge,UK,GB,CB2 2EF",
  "InstitutionName": "MRC-CBU",
  "MRAcquisitionType": "2D",
  "MagneticFieldStrength": 3,
  "Manufacturer": "Siemens",
  "ManufacturersModelName": "TrioTim",
  "MatrixCoilMode": "SENSE",
  "Modality": "MR",
  "NonlinearGradientCorrection": false,
  "PartialFourier": 1,
  "PatientPosition": "HFS",
  "PercentPhaseFOV": 100,
  "PercentSampling": 100,
  "PhaseEncodingDirection": "j-",
  "PhaseEncodingSteps": 64,
  "PhaseResolution": 1,
  "PixelBandwidth": 2230,
  "ProcedureStepDescription": "CBU^Neuroimaging",
  "ProtocolName": "CBU_DWEPI_BOLD210",
  "PulseSequenceDetails": "%SiemensSeq%\\ep2d_bold",
  "ReceiveCoilName": "HeadMatrix",
  "ReconMatrixPE": 64,
  "RepetitionTime": 2,
  "SAR": 0.166426,
  "ScanOptions": "FS",
  "ScanningSequence": "EP",
  "SequenceName": "*epfid2d1_64",
  "SequenceVariant": "SK",
  "SeriesDescription": "CBU_DWEPI_BOLD210",
  "SeriesNumber": 3,
  "ShimSetting": [-7736, -8653, -1974, 879, 317, 442, -138, 26],
  "SliceThickness": 3,
  "SliceTiming": [0, 1.0325, 0.06, 1.095, 0.12, 1.155, 0.1825, 1.215, 0.2425, 1.2775, 0.3025, 1.3375, 0.365, 1.3975, 0.425, 1.46, 0.485, 1.52, 0.5475, 1.58, 0.6075, 1.6425, 0.6675, 1.7025, 0.73, 1.7625, 0.79, 1.825, 0.85, 1.885, 0.9125, 1.945, 0.9725],
  "SoftwareVersions": "syngo MR B15",
  "SpacingBetweenSlices": 4.05,
  "StationName": "MRC35119",
  "TaskName": "faceprocessing",
  "TotalReadoutTime": 0.0321303,
  "TxRefAmp": 361.9,
  "dcmmeta_affine": [
    [-2.9967598915100098, 0.0, 0.18819226324558258, 95.24853515625],
    [-0.0551999993622303, 2.7547860145568848, -1.6019586324691772, -43.49232482910156],
    [0.12800699472427368, 1.187919020652771, 3.71494460105896, -73.54055786132812],
    [0.0, 0.0, 0.0, 1.0]
],
  "dcmmeta_reorient_transform": [
    [0.0, -1.0, 0.0, 63.0],
    [1.0, 0.0, 0.0, 0.0],
    [0.0, 0.0, 1.0, 0.0],
    [0.0, 0.0, 0.0, 1.0]
],
  "dcmmeta_shape": [64, 64, 33, 210],
  "dcmmeta_slice_dim": 2,
  "dcmmeta_version": 0.6,
  "global": {
    "const": {
      "AcquisitionMatrix": [64, 0, 0, 64],
      "AngioFlag": "N",
      "BitsAllocated": 16,
      "BitsStored": 12,
      "Columns": 384,
      "EchoNumbers": 1,
      "EchoTime": 30.0,
      "EchoTrainLength": 1,
      "FlipAngle": 78.0,
      "HighBit": 11,
      "ImageOrientationPatient": [0.99892, 0.0184, 0.042669, 0.0, 0.918262, -0.395973],
      "ImagePositionPatient": [-574.730133, -579.656954, 170.884259],
      "ImageType": [
        "ORIGINAL",
        "PRIMARY",
        "M",
        "ND",
        "MOSAIC"
],
      "ImagedNucleus": "1H",
      "ImagingFrequency": 123.251709,
      "InPlanePhaseEncodingDirection": "COL",
      "MRAcquisitionType": "2D",
      "MagneticFieldStrength": 3.0,
      "Manufacturer": "SIEMENS",
      "ManufacturerModelName": "TrioTim",
      "Modality": "MR",
      "NumberOfAverages": 1.0,
      "NumberOfPhaseEncodingSteps": 64,
      "PercentPhaseFieldOfView": 100.0,
      "PercentSampling": 100.0,
      "PerformedProcedureStepStartTime": "095737.218000",
      "PhotometricInterpretation": "MONOCHROME2",
      "PixelAspectRatio": [1, 1],
      "PixelBandwidth": 2230.0,
      "PixelRepresentation": 0,
      "PixelSpacing": [3.0, 3.0],
      "ProtocolName": "CBU_DWEPI_BOLD210",
      "RepetitionTime": 2000.0,
      "Rows": 384,
      "SAR": 0.166426,
      "SamplesPerPixel": 1,
      "ScanOptions": "FS",
      "ScanningSequence": "EP",
      "SequenceName": "*epfid2d1_64",
      "SequenceVariant": "SK",
      "SeriesDescription": "CBU_DWEPI_BOLD210",
      "SeriesNumber": 3,
      "SeriesTime": "100809.046000",
      "SliceLocation": -45.82775,
      "SliceThickness": 3.0,
      "SmallestImagePixelValue": 0,
      "SoftwareVersions": "syngo MR B15",
      "SpacingBetweenSlices": 4.05,
      "SpecificCharacterSet": "ISO_IR 100",
      "StudyID": "1",
      "StudyTime": "095737.046000",
      "TransmitCoilName": "Body",
      "VariableFlipAngleFlag": "N",
      "WindowCenterWidthExplanation": "Algo1",
      "dBdt": 0.0},
    "slices": {}
  },
  "time": {
    "samples": {
      "AcquisitionNumber": [1, 2, 3, 4, 5, 6, 7, 8, 9, 10, 11, 12, 13, 14, 15, 16, 17, 18, 19, 20, 21, 22, 23, 24, 25, 26, 27, 28, 29, 30, 31, 32, 33, 34, 35, 36, 37, 38, 39, 40, 41, 42, 43, 44, 45, 46, 47, 48, 49, 50, 51, 52, 53, 54, 55, 56, 57, 58, 59, 60, 61, 62, 63, 64, 65, 66, 67, 68, 69, 70, 71, 72, 73, 74, 75, 76, 77, 78, 79, 80, 81, 82, 83, 84, 85, 86, 87, 88, 89, 90, 91, 92, 93, 94, 95, 96, 97, 98, 99, 100, 101, 102, 103, 104, 105, 106, 107, 108, 109, 110, 111, 112, 113, 114, 115, 116, 117, 118, 119, 120, 121, 122, 123, 124, 125, 126, 127, 128, 129, 130, 131, 132, 133, 134, 135, 136, 137, 138, 139, 140, 141, 142, 143, 144, 145, 146, 147, 148, 149, 150, 151, 152, 153, 154, 155, 156, 157, 158, 159, 160, 161, 162, 163, 164, 165, 166, 167, 168, 169, 170, 171, 172, 173, 174, 175, 176, 177, 178, 179, 180, 181, 182, 183, 184, 185, 186, 187, 188, 189, 190, 191, 192, 193, 194, 195, 196, 197, 198, 199, 200, 201, 202, 203, 204, 205, 206, 207, 208, 209, 210],
      "AcquisitionTime": ["100805.770000", "100807.777500", "100809.785000", "100811.792500", "100813.802500", "100815.810000", "100817.817500", "100819.825000", "100821.832500", "100823.842500", "100825.850000", "100827.857500", "100829.865000", "100831.872500", "100833.882500", "100835.890000", "100837.897500", "100839.905000", "100841.915000", "100843.922500", "100845.930000", "100847.937500", "100849.945000", "100851.955000", "100853.962500", "100855.970000", "100857.977500", "100859.985000", "100901.995000", "100904.002500", "100906.010000", "100908.017500", "100910.027500", "100912.035000", "100914.042500", "100916.050000", "100918.057500", "100920.067500", "100922.075000", "100924.082500", "100926.090000", "100928.097500", "100930.107500", "100932.115000", "100934.122500", "100936.130000", "100938.140000", "100940.147500", "100942.155000", "100944.162500", "100946.170000", "100948.180000", "100950.187500", "100952.195000", "100954.202500", "100956.210000", "100958.220000", "101000.227500", "101002.235000", "101004.242500", "101006.250000", "101008.260000", "101010.267500", "101012.275000", "101014.282500", "101016.292500", "101018.300000", "101020.307500", "101022.315000", "101024.322500", "101026.332500", "101028.340000", "101030.347500", "101032.355000", "101034.362500", "101036.372500", "101038.380000", "101040.387500", "101042.395000", "101044.405000", "101046.412500", "101048.420000", "101050.427500", "101052.435000", "101054.445000", "101056.452500", "101058.460000", "101100.467500", "101102.475000", "101104.485000", "101106.492500", "101108.500000", "101110.507500", "101112.517500", "101114.525000", "101116.532500", "101118.540000", "101120.547500", "101122.557500", "101124.565000", "101126.572500", "101128.580000", "101130.587500", "101132.597500", "101134.605000", "101136.612500", "101138.620000", "101140.627500", "101142.637500", "101144.645000", "101146.652500", "101148.660000", "101150.670000", "101152.677500", "101154.685000", "101156.692500", "101158.700000", "101200.710000", "101202.717500", "101204.725000", "101206.732500", "101208.740000", "101210.750000", "101212.757500", "101214.765000", "101216.772500", "101218.782500", "101220.790000", "101222.797500", "101224.805000", "101226.812500", "101228.822500", "101230.830000", "101232.837500", "101234.845000", "101236.852500", "101238.862500", "101240.870000", "101242.877500", "101244.885000", "101246.895000", "101248.902500", "101250.910000", "101252.917500", "101254.925000", "101256.935000", "101258.942500", "101300.950000", "101302.957500", "101304.965000", "101306.975000", "101308.982500", "101310.990000", "101312.997500", "101315.005000", "101317.015000", "101319.022500", "101321.030000", "101323.037500", "101325.047500", "101327.055000", "101329.062500", "101331.070000", "101333.077500", "101335.087500", "101337.095000", "101339.102500", "101341.110000", "101343.117500", "101345.127500", "101347.135000", "101349.142500", "101351.150000", "101353.160000", "101355.167500", "101357.175000", "101359.182500", "101401.190000", "101403.200000", "101405.207500", "101407.215000", "101409.222500", "101411.230000", "101413.240000", "101415.247500", "101417.255000", "101419.262500", "101421.272500", "101423.280000", "101425.287500", "101427.295000", "101429.302500", "101431.312500", "101433.320000", "101435.327500", "101437.335000", "101439.342500", "101441.352500", "101443.360000", "101445.367500", "101447.375000", "101449.385000", "101451.392500", "101453.400000", "101455.407500", "101457.415000", "101459.425000", "101501.432500", "101503.440000", "101505.447500"],
      "ContentTime": ["100809.078000", "100811.046000", "100813.046000", "100815.046000", "100817.046000", "100819.046000", "100821.046000", "100823.046000", "100825.046000", "100827.046000", "100829.046000", "100831.046000", "100833.046000", "100835.046000", "100837.046000", "100839.046000", "100841.046000", "100843.046000", "100845.046000", "100847.046000", "100849.046000", "100851.046000", "100853.046000", "100855.046000", "100857.046000", "100859.046000", "100901.046000", "100903.046000", "100905.046000", "100907.046000", "100909.046000", "100911.046000", "100913.046000", "100915.046000", "100917.046000", "100919.046000", "100921.046000", "100923.046000", "100925.046000", "100927.046000", "100929.046000", "100931.046000", "100933.046000", "100935.046000", "100937.046000", "100939.046000", "100941.046000", "100943.046000", "100945.046000", "100947.046000", "100949.046000", "100951.046000", "100953.046000", "100955.046000", "100957.046000", "100959.046000", "101001.046000", "101003.046000", "101005.046000", "101007.046000", "101009.046000", "101011.046000", "101013.046000", "101015.046000", "101017.046000", "101019.046000", "101021.046000", "101023.046000", "101025.046000", "101027.046000", "101029.046000", "101031.046000", "101033.046000", "101035.046000", "101037.046000", "101039.046000", "101041.046000", "101043.046000", "101045.046000", "101047.046000", "101049.046000", "101051.046000", "101053.046000", "101055.046000", "101057.046000", "101059.046000", "101101.046000", "101103.046000", "101105.046000", "101107.046000", "101109.046000", "101111.046000", "101113.046000", "101115.046000", "101117.046000", "101119.046000", "101121.046000", "101123.046000", "101125.046000", "101127.046000", "101129.046000", "101131.046000", "101133.046000", "101135.046000", "101137.046000", "101139.046000", "101141.046000", "101143.046000", "101145.046000", "101147.046000", "101149.046000", "101151.046000", "101153.046000", "101155.046000", "101157.046000", "101159.046000", "101201.046000", "101203.046000", "101205.046000", "101207.046000", "101209.046000", "101211.046000", "101213.046000", "101215.046000", "101217.046000", "101219.046000", "101221.046000", "101223.046000", "101225.046000", "101227.046000", "101229.046000", "101231.046000", "101233.046000", "101235.046000", "101237.046000", "101239.046000", "101241.046000", "101243.046000", "101245.046000", "101247.046000", "101249.046000", "101251.046000", "101253.046000", "101255.046000", "101257.046000", "101259.046000", "101301.046000", "101303.046000", "101305.046000", "101307.046000", "101309.046000", "101311.046000", "101313.046000", "101315.046000", "101317.046000", "101319.046000", "101321.046000", "101323.046000", "101325.046000", "101327.046000", "101329.046000", "101331.046000", "101333.046000", "101335.046000", "101337.046000", "101339.046000", "101341.046000", "101343.046000", "101345.046000", "101347.046000", "101349.046000", "101351.046000", "101353.046000", "101355.046000", "101357.046000", "101359.046000", "101401.046000", "101403.046000", "101405.046000", "101407.046000", "101409.046000", "101411.046000", "101413.046000", "101415.046000", "101417.046000", "101419.046000", "101421.046000", "101423.046000", "101425.046000", "101427.046000", "101429.046000", "101431.046000", "101433.046000", "101435.046000", "101437.046000", "101439.046000", "101441.046000", "101443.046000", "101445.046000", "101447.046000", "101449.046000", "101451.046000", "101453.046000", "101455.046000", "101457.046000", "101459.046000", "101501.046000", "101503.046000", "101505.046000", "101506.593000"],
      "InstanceCreationTime": ["100809.078000", "100811.046000", "100813.046000", "100815.046000", "100817.046000", "100819.046000", "100821.046000", "100823.046000", "100825.046000", "100827.046000", "100829.046000", "100831.046000", "100833.046000", "100835.046000", "100837.046000", "100839.046000", "100841.046000", "100843.046000", "100845.046000", "100847.046000", "100849.046000", "100851.046000", "100853.046000", "100855.046000", "100857.046000", "100859.046000", "100901.046000", "100903.046000", "100905.046000", "100907.046000", "100909.046000", "100911.046000", "100913.046000", "100915.046000", "100917.046000", "100919.046000", "100921.046000", "100923.046000", "100925.046000", "100927.046000", "100929.046000", "100931.046000", "100933.046000", "100935.046000", "100937.046000", "100939.046000", "100941.046000", "100943.046000", "100945.046000", "100947.046000", "100949.046000", "100951.046000", "100953.046000", "100955.046000", "100957.046000", "100959.046000", "101001.046000", "101003.046000", "101005.046000", "101007.046000", "101009.046000", "101011.046000", "101013.046000", "101015.046000", "101017.046000", "101019.046000", "101021.046000", "101023.046000", "101025.046000", "101027.046000", "101029.046000", "101031.046000", "101033.046000", "101035.046000", "101037.046000", "101039.046000", "101041.046000", "101043.046000", "101045.046000", "101047.046000", "101049.046000", "101051.046000", "101053.046000", "101055.046000", "101057.046000", "101059.046000", "101101.046000", "101103.046000", "101105.046000", "101107.046000", "101109.046000", "101111.046000", "101113.046000", "101115.046000", "101117.046000", "101119.046000", "101121.046000", "101123.046000", "101125.046000", "101127.046000", "101129.046000", "101131.046000", "101133.046000", "101135.046000", "101137.046000", "101139.046000", "101141.046000", "101143.046000", "101145.046000", "101147.046000", "101149.046000", "101151.046000", "101153.046000", "101155.046000", "101157.046000", "101159.046000", "101201.046000", "101203.046000", "101205.046000", "101207.046000", "101209.046000", "101211.046000", "101213.046000", "101215.046000", "101217.046000", "101219.046000", "101221.046000", "101223.046000", "101225.046000", "101227.046000", "101229.046000", "101231.046000", "101233.046000", "101235.046000", "101237.046000", "101239.046000", "101241.046000", "101243.046000", "101245.046000", "101247.046000", "101249.046000", "101251.046000", "101253.046000", "101255.046000", "101257.046000", "101259.046000", "101301.046000", "101303.046000", "101305.046000", "101307.046000", "101309.046000", "101311.046000", "101313.046000", "101315.046000", "101317.046000", "101319.046000", "101321.046000", "101323.046000", "101325.046000", "101327.046000", "101329.046000", "101331.046000", "101333.046000", "101335.046000", "101337.046000", "101339.046000", "101341.046000", "101343.046000", "101345.046000", "101347.046000", "101349.046000", "101351.046000", "101353.046000", "101355.046000", "101357.046000", "101359.046000", "101401.046000", "101403.046000", "101405.046000", "101407.046000", "101409.046000", "101411.046000", "101413.046000", "101415.046000", "101417.046000", "101419.046000", "101421.046000", "101423.046000", "101425.046000", "101427.046000", "101429.046000", "101431.046000", "101433.046000", "101435.046000", "101437.046000", "101439.046000", "101441.046000", "101443.046000", "101445.046000", "101447.046000", "101449.046000", "101451.046000", "101453.046000", "101455.046000", "101457.046000", "101459.046000", "101501.046000", "101503.046000", "101505.046000", "101506.593000"],
      "InstanceNumber": [1, 2, 3, 4, 5, 6, 7, 8, 9, 10, 11, 12, 13, 14, 15, 16, 17, 18, 19, 20, 21, 22, 23, 24, 25, 26, 27, 28, 29, 30, 31, 32, 33, 34, 35, 36, 37, 38, 39, 40, 41, 42, 43, 44, 45, 46, 47, 48, 49, 50, 51, 52, 53, 54, 55, 56, 57, 58, 59, 60, 61, 62, 63, 64, 65, 66, 67, 68, 69, 70, 71, 72, 73, 74, 75, 76, 77, 78, 79, 80, 81, 82, 83, 84, 85, 86, 87, 88, 89, 90, 91, 92, 93, 94, 95, 96, 97, 98, 99, 100, 101, 102, 103, 104, 105, 106, 107, 108, 109, 110, 111, 112, 113, 114, 115, 116, 117, 118, 119, 120, 121, 122, 123, 124, 125, 126, 127, 128, 129, 130, 131, 132, 133, 134, 135, 136, 137, 138, 139, 140, 141, 142, 143, 144, 145, 146, 147, 148, 149, 150, 151, 152, 153, 154, 155, 156, 157, 158, 159, 160, 161, 162, 163, 164, 165, 166, 167, 168, 169, 170, 171, 172, 173, 174, 175, 176, 177, 178, 179, 180, 181, 182, 183, 184, 185, 186, 187, 188, 189, 190, 191, 192, 193, 194, 195, 196, 197, 198, 199, 200, 201, 202, 203, 204, 205, 206, 207, 208, 209, 210],
      "LargestImagePixelValue": [2193, 2089, 2071, 2064, 2050, 2055, 2059, 2055, 2055, 2037, 2026, 2098, 2054, 2044, 2044, 2040, 2054, 2044, 2035, 2063, 2063, 2066, 2047, 2052, 2066, 2062, 2044, 2056, 2023, 2052, 2024, 2041, 2052, 2037, 2038, 2048, 2044, 2048, 2036, 2048, 2054, 2039, 2044, 2040, 2047, 2037, 2060, 2054, 2034, 2038, 2016, 2039, 2053, 2044, 2047, 2092, 2053, 2041, 2061, 2057, 2072, 2089, 2086, 2061, 2048, 2071, 2161, 2042, 2024, 2046, 2032, 2032, 2035, 2047, 2034, 2040, 2057, 2038, 2017, 2042, 2026, 2021, 2036, 2027, 2022, 2022, 2035, 2031, 2019, 2006, 2030, 2024, 2020, 2032, 2018, 2013, 2016, 2007, 2038, 2037, 2022, 2052, 2037, 2056, 2299, 2062, 2038, 2208, 2046, 2055, 2052, 2046, 2028, 2041, 2051, 2047, 2052, 2040, 2028, 2036, 2035, 2033, 2052, 2061, 2042, 2037, 2049, 2028, 2051, 2060, 2031, 2039, 2058, 2066, 2047, 2050, 2042, 2018, 2107, 2080, 2046, 2042, 2013, 2018, 2039, 2024, 2052, 2045, 2052, 2034, 2047, 2310, 2229, 2110, 2075, 2086, 2099, 2108, 2120, 2113, 2102, 2101, 2069, 2089, 2104, 2078, 2087, 2087, 2098, 2091, 2108, 2100, 2105, 2109, 2098, 2088, 2087, 2083, 2095, 2085, 2071, 2090, 2068, 2043, 2052, 2085, 2081, 2070, 2069, 2063, 2099, 2070, 2073, 2064, 2068, 2078, 2051, 2049, 2057, 2060, 2046, 2088, 2174, 2043, 2107, 2075, 2201, 2129, 2123, 2117],
      "WindowCenter": [817.0, 811.0, 809.0, 811.0, 811.0, 811.0, 810.0, 811.0, 811.0, 811.0, 810.0, 810.0, 811.0, 812.0, 811.0, 811.0, 810.0, 812.0, 812.0, 812.0, 814.0, 811.0, 811.0, 812.0, 812.0, 812.0, 811.0, 811.0, 810.0, 809.0, 809.0, 811.0, 813.0, 812.0, 811.0, 810.0, 812.0, 812.0, 811.0, 811.0, 810.0, 810.0, 811.0, 811.0, 812.0, 811.0, 810.0, 809.0, 810.0, 811.0, 812.0, 812.0, 811.0, 810.0, 813.0, 814.0, 813.0, 813.0, 812.0, 812.0, 812.0, 811.0, 812.0, 812.0, 812.0, 814.0, 815.0, 813.0, 810.0, 809.0, 810.0, 812.0, 812.0, 812.0, 811.0, 810.0, 811.0, 812.0, 811.0, 811.0, 810.0, 811.0, 812.0, 812.0, 811.0, 811.0, 811.0, 813.0, 813.0, 813.0, 812.0, 812.0, 813.0, 813.0, 812.0, 811.0, 810.0, 811.0, 812.0, 812.0, 811.0, 813.0, 814.0, 816.0, 817.0, 815.0, 815.0, 815.0, 815.0, 815.0, 815.0, 814.0, 813.0, 813.0, 812.0, 811.0, 811.0, 810.0, 810.0, 810.0, 810.0, 810.0, 811.0, 813.0, 814.0, 813.0, 812.0, 813.0, 813.0, 814.0, 812.0, 812.0, 812.0, 813.0, 813.0, 814.0, 814.0, 815.0, 815.0, 813.0, 813.0, 814.0, 812.0, 812.0, 813.0, 813.0, 812.0, 812.0, 812.0, 812.0, 812.0, 826.0, 818.0, 815.0, 813.0, 812.0, 812.0, 813.0, 814.0, 814.0, 814.0, 814.0, 814.0, 813.0, 814.0, 814.0, 814.0, 813.0, 813.0, 813.0, 814.0, 814.0, 814.0, 814.0, 815.0, 815.0, 814.0, 815.0, 815.0, 814.0, 815.0, 817.0, 817.0, 814.0, 813.0, 814.0, 815.0, 815.0, 814.0, 813.0, 812.0, 812.0, 812.0, 812.0, 813.0, 813.0, 813.0, 812.0, 813.0, 814.0, 814.0, 819.0, 829.0, 813.0, 817.0, 815.0, 820.0, 809.0, 805.0, 807.0],
      "WindowWidth": [1701.0, 1684.0, 1680.0, 1682.0, 1683.0, 1682.0, 1680.0, 1682.0, 1682.0, 1682.0, 1680.0, 1681.0, 1684.0, 1685.0, 1683.0, 1682.0, 1681.0, 1684.0, 1685.0, 1684.0, 1691.0, 1683.0, 1682.0, 1684.0, 1684.0, 1684.0, 1683.0, 1682.0, 1680.0, 1678.0, 1677.0, 1682.0, 1687.0, 1686.0, 1683.0, 1681.0, 1684.0, 1685.0, 1682.0, 1681.0, 1680.0, 1680.0, 1682.0, 1682.0, 1684.0, 1683.0, 1681.0, 1679.0, 1679.0, 1682.0, 1685.0, 1685.0, 1683.0, 1681.0, 1688.0, 1690.0, 1687.0, 1686.0, 1685.0, 1686.0, 1685.0, 1683.0, 1685.0, 1686.0, 1686.0, 1689.0, 1692.0, 1686.0, 1680.0, 1679.0, 1680.0, 1684.0, 1685.0, 1683.0, 1682.0, 1680.0, 1682.0, 1684.0, 1683.0, 1682.0, 1681.0, 1682.0, 1684.0, 1684.0, 1683.0, 1682.0, 1684.0, 1686.0, 1687.0, 1687.0, 1686.0, 1686.0, 1687.0, 1687.0, 1686.0, 1682.0, 1681.0, 1683.0, 1685.0, 1684.0, 1684.0, 1687.0, 1690.0, 1694.0, 1698.0, 1693.0, 1691.0, 1691.0, 1691.0, 1693.0, 1692.0, 1689.0, 1687.0, 1687.0, 1685.0, 1684.0, 1682.0, 1681.0, 1681.0, 1680.0, 1680.0, 1681.0, 1683.0, 1688.0, 1689.0, 1686.0, 1685.0, 1688.0, 1688.0, 1689.0, 1686.0, 1686.0, 1686.0, 1688.0, 1689.0, 1690.0, 1689.0, 1692.0, 1691.0, 1688.0, 1689.0, 1688.0, 1686.0, 1685.0, 1687.0, 1688.0, 1685.0, 1684.0, 1684.0, 1684.0, 1685.0, 1720.0, 1699.0, 1692.0, 1687.0, 1684.0, 1685.0, 1688.0, 1689.0, 1691.0, 1690.0, 1690.0, 1688.0, 1688.0, 1689.0, 1690.0, 1689.0, 1688.0, 1688.0, 1688.0, 1690.0, 1689.0, 1689.0, 1691.0, 1691.0, 1691.0, 1690.0, 1692.0, 1691.0, 1690.0, 1692.0, 1698.0, 1696.0, 1690.0, 1686.0, 1688.0, 1693.0, 1691.0, 1688.0, 1687.0, 1685.0, 1685.0, 1686.0, 1685.0, 1687.0, 1687.0, 1686.0, 1686.0, 1688.0, 1689.0, 1690.0, 1702.0, 1725.0, 1686.0, 1697.0, 1693.0, 1707.0, 1678.0, 1670.0, 1673.0]
    },
    "slices": {}
  }
}