{
  "AcquisitionMatrixPE": 64,
  "AcquisitionNumber": 1,
  "AcquisitionTime": "10:37:59.835000",
  "BandwidthPerPixelPhaseEncode": 30.637,
  "BaseResolution": 64,
  "BidsGuess": [
    "func",
    "_acq-epfid2_dir-AP_run-7_bold"
],
  "CoilCombinationMethod": "Sum of Squares",
  "CoilString": "C:HEA;HEP",
  "ConversionSoftware": "dcm2niix",
  "ConversionSoftwareVersion": "v1.0.20240202",
  "DerivedVendorReportedEchoSpacing": 0.000510004,
  "DeviceSerialNumber": "35119",
  "DwellTime": 3.5e-06,
  "EchoTime": 0.03,
  "EffectiveEchoSpacing": 0.000510004,
  "FlipAngle": 78,
  "HeudiconvVersion": "1.1.6",
  "ImageComments": "V",
  "ImageOrientationPatientDICOM": [0.99892, 0.0184, 0.042669, 0, 0.918262, -0.395973],
  "ImageOrientationText": "Tra>Cor(-23.3)>Sag(2.7)",
  "ImageType": [
    "ORIGINAL",
    "PRIMARY",
    "M",
    "ND",
    "MOSAIC"
],
  "ImagingFrequency": 123.251745,
  "InPlanePhaseEncodingDirectionDICOM": "COL",
  "InstitutionAddress": "Chaucer Road  15,Cambridge,UK,GB,CB2 2EF",
  "InstitutionName": "MRC-CBU",
  "MRAcquisitionType": "2D",
  "MagneticFieldStrength": 3,
  "Manufacturer": "Siemens",
  "ManufacturersModelName": "TrioTim",
  "MatrixCoilMode": "SENSE",
  "Modality": "MR",
  "NonlinearGradientCorrection": false,
  "PartialFourier": 1,
  "PatientPosition": "HFS",
  "PercentPhaseFOV": 100,
  "PercentSampling": 100,
  "PhaseEncodingDirection": "j-",
  "PhaseEncodingSteps": 64,
  "PhaseResolution": 1,
  "PixelBandwidth": 2230,
  "ProcedureStepDescription": "CBU^Neuroimaging",
  "ProtocolName": "CBU_DWEPI_BOLD210",
  "PulseSequenceDetails": "%SiemensSeq%\\ep2d_bold",
  "ReceiveCoilName": "HeadMatrix",
  "ReconMatrixPE": 64,
  "RepetitionTime": 2,
  "SAR": 0.166426,
  "ScanOptions": "FS",
  "ScanningSequence": "EP",
  "SequenceName": "*epfid2d1_64",
  "SequenceVariant": "SK",
  "SeriesDescription": "CBU_DWEPI_BOLD210",
  "SeriesNumber": 7,
  "ShimSetting": [-7736, -8651, -1976, 871, 316, 464, -140, 27],
  "SliceThickness": 3,
  "SliceTiming": [0, 1.035, 0.06, 1.095, 0.1225, 1.155, 0.1825, 1.2175, 0.2425, 1.2775, 0.305, 1.3375, 0.365, 1.4, 0.425, 1.46, 0.4875, 1.52, 0.5475, 1.5825, 0.6075, 1.6425, 0.67, 1.7025, 0.73, 1.765, 0.79, 1.825, 0.8525, 1.885, 0.9125, 1.9475, 0.9725],
  "SoftwareVersions": "syngo MR B15",
  "SpacingBetweenSlices": 4.05,
  "StationName": "MRC35119",
  "TaskName": "faceprocessing",
  "TotalReadoutTime": 0.0321303,
  "TxRefAmp": 361.9,
  "dcmmeta_affine": [
    [-2.9967598915100098, 0.0, 0.18819226324558258, 95.24853515625],
    [-0.0551999993622303, 2.7547860145568848, -1.6019586324691772, -46.59159851074219],
    [0.12800699472427368, 1.187919020652771, 3.71494460105896, -73.54055786132812],
    [0.0, 0.0, 0.0, 1.0]
],
  "dcmmeta_reorient_transform": [
    [0.0, -1.0, 0.0, 63.0],
    [1.0, 0.0, 0.0, 0.0],
    [0.0, 0.0, 1.0, 0.0],
    [0.0, 0.0, 0.0, 1.0]
],
  "dcmmeta_shape": [64, 64, 33, 210],
  "dcmmeta_slice_dim": 2,
  "dcmmeta_version": 0.6,
  "global": {
    "const": {
      "AcquisitionMatrix": [64, 0, 0, 64],
      "AngioFlag": "N",
      "BitsAllocated": 16,
      "BitsStored": 12,
      "Columns": 384,
      "EchoNumbers": 1,
      "EchoTime": 30.0,
      "EchoTrainLength": 1,
      "FlipAngle": 78.0,
      "HighBit": 11,
      "ImageOrientationPatient": [0.99892, 0.0184, 0.042669, 0.0, 0.918262, -0.395973],
      "ImagePositionPatient": [-574.730133, -576.55768, 170.884259],
      "ImageType": [
        "ORIGINAL",
        "PRIMARY",
        "M",
        "ND",
        "MOSAIC"
],
      "ImagedNucleus": "1H",
      "ImagingFrequency": 123.251745,
      "InPlanePhaseEncodingDirection": "COL",
      "MRAcquisitionType": "2D",
      "MagneticFieldStrength": 3.0,
      "Manufacturer": "SIEMENS",
      "ManufacturerModelName": "TrioTim",
      "Modality": "MR",
      "NumberOfAverages": 1.0,
      "NumberOfPhaseEncodingSteps": 64,
      "PercentPhaseFieldOfView": 100.0,
      "PercentSampling": 100.0,
      "PerformedProcedureStepStartTime": "095737.218000",
      "PhotometricInterpretation": "MONOCHROME2",
      "PixelAspectRatio": [1, 1],
      "PixelBandwidth": 2230.0,
      "PixelRepresentation": 0,
      "PixelSpacing": [3.0, 3.0],
      "ProtocolName": "CBU_DWEPI_BOLD210",
      "RepetitionTime": 2000.0,
      "Rows": 384,
      "SAR": 0.166426,
      "SamplesPerPixel": 1,
      "ScanOptions": "FS",
      "ScanningSequence": "EP",
      "SequenceName": "*epfid2d1_64",
      "SequenceVariant": "SK",
      "SeriesDescription": "CBU_DWEPI_BOLD210",
      "SeriesNumber": 7,
      "SeriesTime": "103803.046000",
      "SliceLocation": -44.601846,
      "SliceThickness": 3.0,
      "SmallestImagePixelValue": 0,
      "SoftwareVersions": "syngo MR B15",
      "SpacingBetweenSlices": 4.05,
      "SpecificCharacterSet": "ISO_IR 100",
      "StudyID": "1",
      "StudyTime": "095737.046000",
      "TransmitCoilName": "Body",
      "VariableFlipAngleFlag": "N",
      "WindowCenterWidthExplanation": "Algo1",
      "dBdt": 0.0},
    "slices": {}
  },
  "time": {
    "samples": {
      "AcquisitionNumber": [1, 2, 3, 4, 5, 6, 7, 8, 9, 10, 11, 12, 13, 14, 15, 16, 17, 18, 19, 20, 21, 22, 23, 24, 25, 26, 27, 28, 29, 30, 31, 32, 33, 34, 35, 36, 37, 38, 39, 40, 41, 42, 43, 44, 45, 46, 47, 48, 49, 50, 51, 52, 53, 54, 55, 56, 57, 58, 59, 60, 61, 62, 63, 64, 65, 66, 67, 68, 69, 70, 71, 72, 73, 74, 75, 76, 77, 78, 79, 80, 81, 82, 83, 84, 85, 86, 87, 88, 89, 90, 91, 92, 93, 94, 95, 96, 97, 98, 99, 100, 101, 102, 103, 104, 105, 106, 107, 108, 109, 110, 111, 112, 113, 114, 115, 116, 117, 118, 119, 120, 121, 122, 123, 124, 125, 126, 127, 128, 129, 130, 131, 132, 133, 134, 135, 136, 137, 138, 139, 140, 141, 142, 143, 144, 145, 146, 147, 148, 149, 150, 151, 152, 153, 154, 155, 156, 157, 158, 159, 160, 161, 162, 163, 164, 165, 166, 167, 168, 169, 170, 171, 172, 173, 174, 175, 176, 177, 178, 179, 180, 181, 182, 183, 184, 185, 186, 187, 188, 189, 190, 191, 192, 193, 194, 195, 196, 197, 198, 199, 200, 201, 202, 203, 204, 205, 206, 207, 208, 209, 210],
      "AcquisitionTime": ["103759.835000", "103801.842500", "103803.850000", "103805.860000", "103807.867500", "103809.875000", "103811.882500", "103813.892500", "103815.900000", "103817.907500", "103819.915000", "103821.922500", "103823.932500", "103825.940000", "103827.947500", "103829.955000", "103831.962500", "103833.972500", "103835.980000", "103837.987500", "103839.995000", "103842.005000", "103844.012500", "103846.020000", "103848.027500", "103850.035000", "103852.045000", "103854.052500", "103856.060000", "103858.067500", "103900.075000", "103902.085000", "103904.092500", "103906.100000", "103908.107500", "103910.117500", "103912.125000", "103914.132500", "103916.140000", "103918.147500", "103920.157500", "103922.165000", "103924.172500", "103926.180000", "103928.187500", "103930.197500", "103932.205000", "103934.212500", "103936.220000", "103938.227500", "103940.237500", "103942.245000", "103944.252500", "103946.260000", "103948.270000", "103950.277500", "103952.285000", "103954.292500", "103956.300000", "103958.310000", "104000.317500", "104002.325000", "104004.332500", "104006.340000", "104008.350000", "104010.357500", "104012.365000", "104014.372500", "104016.382500", "104018.390000", "104020.397500", "104022.405000", "104024.412500", "104026.422500", "104028.430000", "104030.437500", "104032.445000", "104034.452500", "104036.462500", "104038.470000", "104040.477500", "104042.485000", "104044.495000", "104046.502500", "104048.510000", "104050.517500", "104052.525000", "104054.535000", "104056.542500", "104058.550000", "104100.557500", "104102.565000", "104104.575000", "104106.582500", "104108.590000", "104110.597500", "104112.605000", "104114.615000", "104116.622500", "104118.630000", "104120.637500", "104122.647500", "104124.655000", "104126.662500", "104128.670000", "104130.677500", "104132.687500", "104134.695000", "104136.702500", "104138.710000", "104140.717500", "104142.727500", "104144.735000", "104146.742500", "104148.750000", "104150.760000", "104152.767500", "104154.775000", "104156.782500", "104158.790000", "104200.800000", "104202.807500", "104204.815000", "104206.822500", "104208.830000", "104210.840000", "104212.847500", "104214.855000", "104216.862500", "104218.872500", "104220.880000", "104222.887500", "104224.895000", "104226.902500", "104228.912500", "104230.920000", "104232.927500", "104234.935000", "104236.942500", "104238.952500", "104240.960000", "104242.967500", "104244.975000", "104246.982500", "104248.992500", "104251.000000", "104253.007500", "104255.015000", "104257.025000", "104259.032500", "104301.040000", "104303.047500", "104305.055000", "104307.065000", "104309.072500", "104311.080000", "104313.087500", "104315.095000", "104317.105000", "104319.112500", "104321.120000", "104323.127500", "104325.137500", "104327.145000", "104329.152500", "104331.160000", "104333.167500", "104335.177500", "104337.185000", "104339.192500", "104341.200000", "104343.207500", "104345.217500", "104347.225000", "104349.232500", "104351.240000", "104353.250000", "104355.257500", "104357.265000", "104359.272500", "104401.280000", "104403.290000", "104405.297500", "104407.305000", "104409.312500", "104411.320000", "104413.330000", "104415.337500", "104417.345000", "104419.352500", "104421.360000", "104423.370000", "104425.377500", "104427.385000", "104429.392500", "104431.402500", "104433.410000", "104435.417500", "104437.425000", "104439.432500", "104441.442500", "104443.450000", "104445.457500", "104447.465000", "104449.472500", "104451.482500", "104453.490000", "104455.497500", "104457.505000", "104459.515000"],
      "ContentTime": ["103803.046000", "103804.531000", "103806.531000", "103808.531000", "103810.531000", "103812.531000", "103814.531000", "103816.531000", "103819.031000", "103820.531000", "103822.531000", "103824.531000", "103826.531000", "103828.546000", "103830.531000", "103832.531000", "103835.031000", "103836.531000", "103838.531000", "103840.531000", "103842.531000", "103844.531000", "103846.531000", "103848.531000", "103851.031000", "103852.531000", "103854.531000", "103857.031000", "103858.531000", "103900.531000", "103902.531000", "103904.531000", "103907.031000", "103908.531000", "103910.531000", "103912.531000", "103914.546000", "103916.531000", "103918.531000", "103921.031000", "103923.031000", "103924.531000", "103926.531000", "103928.531000", "103930.531000", "103932.531000", "103934.531000", "103936.531000", "103939.031000", "103940.531000", "103942.531000", "103944.531000", "103946.531000", "103948.531000", "103950.531000", "103952.531000", "103955.046000", "103956.531000", "103958.531000", "104000.531000", "104003.031000", "104004.531000", "104006.531000", "104008.531000", "104011.031000", "104012.531000", "104014.531000", "104016.531000", "104018.531000", "104021.046000", "104022.531000", "104024.531000", "104027.031000", "104028.546000", "104030.531000", "104032.531000", "104035.031000", "104036.531000", "104038.531000", "104040.531000", "104043.031000", "104045.031000", "104046.531000", "104048.531000", "104050.531000", "104052.531000", "104054.531000", "104056.546000", "104059.031000", "104101.031000", "104102.531000", "104104.531000", "104106.531000", "104108.531000", "104110.531000", "104112.531000", "104115.031000", "104117.031000", "104118.531000", "104121.031000", "104122.531000", "104124.531000", "104126.531000", "104128.531000", "104131.031000", "104132.531000", "104134.531000", "104136.531000", "104139.031000", "104140.531000", "104142.531000", "104144.531000", "104147.031000", "104148.531000", "104150.531000", "104152.531000", "104154.531000", "104156.531000", "104158.531000", "104200.531000", "104203.031000", "104204.531000", "104206.531000", "104208.531000", "104210.531000", "104212.546000", "104214.531000", "104216.531000", "104219.031000", "104220.531000", "104222.531000", "104225.031000", "104226.531000", "104228.531000", "104230.531000", "104232.531000", "104235.031000", "104237.031000", "104238.531000", "104240.531000", "104242.531000", "104244.531000", "104246.531000", "104248.531000", "104251.031000", "104253.031000", "104254.531000", "104256.531000", "104258.531000", "104300.531000", "104302.531000", "104304.531000", "104307.031000", "104308.531000", "104310.531000", "104312.531000", "104314.531000", "104316.531000", "104318.531000", "104320.546000", "104323.031000", "104325.031000", "104326.531000", "104328.531000", "104330.531000", "104332.531000", "104334.531000", "104336.531000", "104339.031000", "104340.531000", "104342.531000", "104344.531000", "104346.531000", "104348.531000", "104350.531000", "104353.031000", "104355.031000", "104356.546000", "104358.531000", "104400.531000", "104402.531000", "104404.531000", "104406.531000", "104408.531000", "104411.031000", "104413.031000", "104414.531000", "104416.531000", "104418.531000", "104420.546000", "104422.531000", "104424.531000", "104427.031000", "104428.531000", "104430.531000", "104433.031000", "104434.531000", "104436.531000", "104438.531000", "104440.531000", "104443.031000", "104445.031000", "104446.531000", "104448.531000", "104450.531000", "104452.531000", "104454.531000", "104456.531000", "104459.031000", "104500.531000"],
      "InstanceCreationTime": ["103803.046000", "103804.531000", "103806.531000", "103808.531000", "103810.531000", "103812.531000", "103814.531000", "103816.531000", "103819.031000", "103820.531000", "103822.531000", "103824.531000", "103826.531000", "103828.546000", "103830.531000", "103832.531000", "103835.031000", "103836.531000", "103838.531000", "103840.531000", "103842.531000", "103844.531000", "103846.531000", "103848.531000", "103851.031000", "103852.531000", "103854.531000", "103857.031000", "103858.531000", "103900.531000", "103902.531000", "103904.531000", "103907.031000", "103908.531000", "103910.531000", "103912.531000", "103914.546000", "103916.531000", "103918.531000", "103921.031000", "103923.031000", "103924.531000", "103926.531000", "103928.531000", "103930.531000", "103932.531000", "103934.531000", "103936.531000", "103939.031000", "103940.531000", "103942.531000", "103944.531000", "103946.531000", "103948.531000", "103950.531000", "103952.531000", "103955.046000", "103956.531000", "103958.531000", "104000.531000", "104003.031000", "104004.531000", "104006.531000", "104008.531000", "104011.031000", "104012.531000", "104014.531000", "104016.531000", "104018.531000", "104021.046000", "104022.531000", "104024.531000", "104027.031000", "104028.546000", "104030.531000", "104032.531000", "104035.031000", "104036.531000", "104038.531000", "104040.531000", "104043.031000", "104045.031000", "104046.531000", "104048.531000", "104050.531000", "104052.531000", "104054.531000", "104056.546000", "104059.031000", "104101.031000", "104102.531000", "104104.531000", "104106.531000", "104108.531000", "104110.531000", "104112.531000", "104115.031000", "104117.031000", "104118.531000", "104121.031000", "104122.531000", "104124.531000", "104126.531000", "104128.531000", "104131.031000", "104132.531000", "104134.531000", "104136.531000", "104139.031000", "104140.531000", "104142.531000", "104144.531000", "104147.031000", "104148.531000", "104150.531000", "104152.531000", "104154.531000", "104156.531000", "104158.531000", "104200.531000", "104203.031000", "104204.531000", "104206.531000", "104208.531000", "104210.531000", "104212.546000", "104214.531000", "104216.531000", "104219.031000", "104220.531000", "104222.531000", "104225.031000", "104226.531000", "104228.531000", "104230.531000", "104232.531000", "104235.031000", "104237.031000", "104238.531000", "104240.531000", "104242.531000", "104244.531000", "104246.531000", "104248.531000", "104251.031000", "104253.031000", "104254.531000", "104256.531000", "104258.531000", "104300.531000", "104302.531000", "104304.531000", "104307.031000", "104308.531000", "104310.531000", "104312.531000", "104314.531000", "104316.531000", "104318.531000", "104320.546000", "104323.031000", "104325.031000", "104326.531000", "104328.531000", "104330.531000", "104332.531000", "104334.531000", "104336.531000", "104339.031000", "104340.531000", "104342.531000", "104344.531000", "104346.531000", "104348.531000", "104350.531000", "104353.031000", "104355.031000", "104356.546000", "104358.531000", "104400.531000", "104402.531000", "104404.531000", "104406.531000", "104408.531000", "104411.031000", "104413.031000", "104414.531000", "104416.531000", "104418.531000", "104420.546000", "104422.531000", "104424.531000", "104427.031000", "104428.531000", "104430.531000", "104433.031000", "104434.531000", "104436.531000", "104438.531000", "104440.531000", "104443.031000", "104445.031000", "104446.531000", "104448.531000", "104450.531000", "104452.531000", "104454.531000", "104456.531000", "104459.031000", "104500.531000"],
      "InstanceNumber": [1, 2, 3, 4, 5, 6, 7, 8, 9, 10, 11, 12, 13, 14, 15, 16, 17, 18, 19, 20, 21, 22, 23, 24, 25, 26, 27, 28, 29, 30, 31, 32, 33, 34, 35, 36, 37, 38, 39, 40, 41, 42, 43, 44, 45, 46, 47, 48, 49, 50, 51, 52, 53, 54, 55, 56, 57, 58, 59, 60, 61, 62, 63, 64, 65, 66, 67, 68, 69, 70, 71, 72, 73, 74, 75, 76, 77, 78, 79, 80, 81, 82, 83, 84, 85, 86, 87, 88, 89, 90, 91, 92, 93, 94, 95, 96, 97, 98, 99, 100, 101, 102, 103, 104, 105, 106, 107, 108, 109, 110, 111, 112, 113, 114, 115, 116, 117, 118, 119, 120, 121, 122, 123, 124, 125, 126, 127, 128, 129, 130, 131, 132, 133, 134, 135, 136, 137, 138, 139, 140, 141, 142, 143, 144, 145, 146, 147, 148, 149, 150, 151, 152, 153, 154, 155, 156, 157, 158, 159, 160, 161, 162, 163, 164, 165, 166, 167, 168, 169, 170, 171, 172, 173, 174, 175, 176, 177, 178, 179, 180, 181, 182, 183, 184, 185, 186, 187, 188, 189, 190, 191, 192, 193, 194, 195, 196, 197, 198, 199, 200, 201, 202, 203, 204, 205, 206, 207, 208, 209, 210],
      "LargestImagePixelValue": [2331, 2237, 2177, 2163, 2155, 2156, 2167, 2175, 2160, 2184, 2155, 2148, 2155, 2163, 2160, 2152, 2142, 2142, 2141, 2137, 2167, 2152, 2136, 2209, 2172, 2147, 2144, 2144, 2149, 2159, 2164, 2118, 2091, 2130, 2147, 2143, 2162, 2132, 2173, 2174, 2166, 2152, 2162, 2154, 2157, 2162, 2160, 2162, 2162, 2169, 2177, 2139, 2154, 2159, 2236, 2165, 2150, 2156, 2163, 2151, 2166, 2165, 2146, 2157, 2177, 2162, 2171, 2160, 2171, 2185, 2173, 2174, 2189, 2175, 2188, 2175, 2159, 2151, 2147, 2130, 2142, 2141, 2152, 2147, 2149, 2134, 2148, 2163, 2165, 2173, 2167, 2143, 2135, 2159, 2169, 2145, 2135, 2158, 2149, 2141, 2163, 2157, 2147, 2154, 2137, 2124, 2143, 2148, 2141, 2141, 2157, 2139, 2144, 2161, 2193, 2153, 2168, 2168, 2170, 2182, 2159, 2166, 2159, 2176, 2143, 2164, 2180, 2139, 2160, 2123, 2160, 2152, 2143, 2140, 2139, 2131, 2137, 2134, 2141, 2137, 2144, 2148, 2169, 2178, 2150, 2145, 2237, 2299, 2182, 2256, 2187, 2179, 2171, 2154, 2168, 2164, 2169, 2188, 2168, 2148, 2162, 2170, 2190, 2170, 2196, 2194, 2186, 2153, 2167, 2165, 2164, 2164, 2166, 2164, 2183, 2182, 2179, 2185, 2155, 2159, 2163, 2141, 2137, 2157, 2227, 2147, 2131, 2155, 2167, 2168, 2178, 2182, 2175, 2183, 2166, 2174, 2173, 2183, 2188, 2184, 2198, 2198, 2230, 2232, 2215, 2183, 2171, 2152, 2185, 2165],
      "WindowCenter": [825.0, 819.0, 817.0, 813.0, 810.0, 810.0, 812.0, 814.0, 815.0, 816.0, 815.0, 815.0, 815.0, 816.0, 816.0, 815.0, 815.0, 815.0, 814.0, 815.0, 814.0, 814.0, 815.0, 821.0, 816.0, 816.0, 815.0, 816.0, 817.0, 818.0, 818.0, 817.0, 816.0, 815.0, 816.0, 815.0, 814.0, 813.0, 814.0, 815.0, 814.0, 814.0, 815.0, 815.0, 816.0, 815.0, 814.0, 814.0, 814.0, 815.0, 815.0, 814.0, 814.0, 816.0, 821.0, 818.0, 815.0, 814.0, 816.0, 816.0, 815.0, 814.0, 814.0, 816.0, 816.0, 815.0, 815.0, 816.0, 817.0, 816.0, 815.0, 816.0, 817.0, 816.0, 815.0, 816.0, 817.0, 817.0, 815.0, 814.0, 813.0, 814.0, 814.0, 815.0, 818.0, 817.0, 817.0, 816.0, 816.0, 816.0, 816.0, 815.0, 814.0, 815.0, 816.0, 816.0, 815.0, 815.0, 816.0, 816.0, 816.0, 816.0, 816.0, 817.0, 819.0, 818.0, 817.0, 817.0, 817.0, 817.0, 816.0, 814.0, 815.0, 816.0, 818.0, 815.0, 813.0, 813.0, 815.0, 815.0, 815.0, 815.0, 816.0, 817.0, 816.0, 816.0, 816.0, 816.0, 815.0, 813.0, 814.0, 812.0, 810.0, 809.0, 812.0, 814.0, 815.0, 816.0, 817.0, 817.0, 816.0, 815.0, 815.0, 815.0, 816.0, 818.0, 820.0, 819.0, 816.0, 816.0, 815.0, 815.0, 817.0, 817.0, 817.0, 816.0, 816.0, 816.0, 816.0, 815.0, 815.0, 814.0, 813.0, 814.0, 815.0, 814.0, 814.0, 814.0, 815.0, 815.0, 815.0, 815.0, 816.0, 816.0, 816.0, 816.0, 816.0, 817.0, 818.0, 817.0, 818.0, 817.0, 817.0, 817.0, 817.0, 817.0, 816.0, 815.0, 817.0, 819.0, 821.0, 819.0, 816.0, 817.0, 818.0, 819.0, 818.0, 816.0, 815.0, 815.0, 814.0, 813.0, 813.0, 814.0, 815.0, 814.0, 814.0, 815.0, 816.0, 817.0],
      "WindowWidth": [1720.0, 1705.0, 1699.0, 1689.0, 1682.0, 1683.0, 1688.0, 1692.0, 1694.0, 1696.0, 1695.0, 1695.0, 1694.0, 1695.0, 1696.0, 1694.0, 1692.0, 1693.0, 1693.0, 1693.0, 1691.0, 1691.0, 1693.0, 1709.0, 1697.0, 1696.0, 1693.0, 1697.0, 1698.0, 1701.0, 1699.0, 1697.0, 1696.0, 1694.0, 1695.0, 1694.0, 1692.0, 1690.0, 1691.0, 1692.0, 1691.0, 1691.0, 1693.0, 1694.0, 1695.0, 1693.0, 1691.0, 1690.0, 1691.0, 1694.0, 1693.0, 1691.0, 1692.0, 1696.0, 1707.0, 1700.0, 1694.0, 1692.0, 1697.0, 1697.0, 1695.0, 1692.0, 1693.0, 1696.0, 1695.0, 1694.0, 1693.0, 1696.0, 1698.0, 1696.0, 1694.0, 1697.0, 1697.0, 1696.0, 1694.0, 1697.0, 1699.0, 1697.0, 1693.0, 1691.0, 1690.0, 1691.0, 1692.0, 1695.0, 1701.0, 1700.0, 1698.0, 1695.0, 1696.0, 1697.0, 1695.0, 1693.0, 1691.0, 1694.0, 1696.0, 1696.0, 1694.0, 1694.0, 1695.0, 1697.0, 1697.0, 1697.0, 1695.0, 1700.0, 1703.0, 1701.0, 1699.0, 1698.0, 1698.0, 1697.0, 1695.0, 1692.0, 1695.0, 1696.0, 1701.0, 1693.0, 1689.0, 1689.0, 1693.0, 1694.0, 1694.0, 1695.0, 1696.0, 1699.0, 1697.0, 1695.0, 1696.0, 1697.0, 1694.0, 1690.0, 1692.0, 1687.0, 1681.0, 1681.0, 1687.0, 1693.0, 1694.0, 1696.0, 1699.0, 1699.0, 1696.0, 1695.0, 1695.0, 1695.0, 1696.0, 1701.0, 1708.0, 1704.0, 1697.0, 1698.0, 1695.0, 1695.0, 1699.0, 1698.0, 1697.0, 1697.0, 1697.0, 1696.0, 1696.0, 1695.0, 1694.0, 1692.0, 1691.0, 1693.0, 1693.0, 1692.0, 1691.0, 1692.0, 1695.0, 1694.0, 1694.0, 1695.0, 1697.0, 1697.0, 1697.0, 1696.0, 1697.0, 1699.0, 1700.0, 1699.0, 1700.0, 1698.0, 1698.0, 1698.0, 1700.0, 1698.0, 1696.0, 1694.0, 1697.0, 1703.0, 1707.0, 1703.0, 1697.0, 1698.0, 1701.0, 1703.0, 1700.0, 1696.0, 1694.0, 1695.0, 1692.0, 1690.0, 1689.0, 1692.0, 1694.0, 1692.0, 1692.0, 1693.0, 1697.0, 1700.0]
    },
    "slices": {}
  }
}