{
  "AcquisitionMatrixPE": 64,
  "AcquisitionNumber": 1,
  "AcquisitionTime": "10:30:35.955000",
  "BandwidthPerPixelPhaseEncode": 30.637,
  "BaseResolution": 64,
  "BidsGuess": [
    "func",
    "_acq-epfid2_dir-AP_run-6_bold"
],
  "CoilCombinationMethod": "Sum of Squares",
  "CoilString": "C:HEA;HEP",
  "ConversionSoftware": "dcm2niix",
  "ConversionSoftwareVersion": "v1.0.20240202",
  "DerivedVendorReportedEchoSpacing": 0.000510004,
  "DeviceSerialNumber": "35119",
  "DwellTime": 3.5e-06,
  "EchoTime": 0.03,
  "EffectiveEchoSpacing": 0.000510004,
  "FlipAngle": 78,
  "HeudiconvVersion": "1.1.6",
  "ImageComments": "V",
  "ImageOrientationPatientDICOM": [0.99892, 0.0184, 0.042669, 0, 0.918262, -0.395973],
  "ImageOrientationText": "Tra>Cor(-23.3)>Sag(2.7)",
  "ImageType": [
    "ORIGINAL",
    "PRIMARY",
    "M",
    "ND",
    "MOSAIC"
],
  "ImagingFrequency": 123.251745,
  "InPlanePhaseEncodingDirectionDICOM": "COL",
  "InstitutionAddress": "Chaucer Road  15,Cambridge,UK,GB,CB2 2EF",
  "InstitutionName": "MRC-CBU",
  "MRAcquisitionType": "2D",
  "MagneticFieldStrength": 3,
  "Manufacturer": "Siemens",
  "ManufacturersModelName": "TrioTim",
  "MatrixCoilMode": "SENSE",
  "Modality": "MR",
  "NonlinearGradientCorrection": false,
  "PartialFourier": 1,
  "PatientPosition": "HFS",
  "PercentPhaseFOV": 100,
  "PercentSampling": 100,
  "PhaseEncodingDirection": "j-",
  "PhaseEncodingSteps": 64,
  "PhaseResolution": 1,
  "PixelBandwidth": 2230,
  "ProcedureStepDescription": "CBU^Neuroimaging",
  "ProtocolName": "CBU_DWEPI_BOLD210",
  "PulseSequenceDetails": "%SiemensSeq%\\ep2d_bold",
  "ReceiveCoilName": "HeadMatrix",
  "ReconMatrixPE": 64,
  "RepetitionTime": 2,
  "SAR": 0.166426,
  "ScanOptions": "FS",
  "ScanningSequence": "EP",
  "SequenceName": "*epfid2d1_64",
  "SequenceVariant": "SK",
  "SeriesDescription": "CBU_DWEPI_BOLD210",
  "SeriesNumber": 6,
  "ShimSetting": [-7736, -8651, -1976, 871, 316, 464, -140, 27],
  "SliceThickness": 3,
  "SliceTiming": [0, 1.0325, 0.06, 1.095, 0.12, 1.155, 0.1825, 1.215, 0.2425, 1.2775, 0.3025, 1.3375, 0.365, 1.3975, 0.425, 1.46, 0.485, 1.52, 0.5475, 1.58, 0.6075, 1.6425, 0.6675, 1.7025, 0.73, 1.7625, 0.79, 1.825, 0.85, 1.885, 0.9125, 1.945, 0.9725],
  "SoftwareVersions": "syngo MR B15",
  "SpacingBetweenSlices": 4.05,
  "StationName": "MRC35119",
  "TaskName": "faceprocessing",
  "TotalReadoutTime": 0.0321303,
  "TxRefAmp": 361.9,
  "dcmmeta_affine": [
    [-2.9967598915100098, 0.0, 0.18819226324558258, 95.24853515625],
    [-0.0551999993622303, 2.7547860145568848, -1.6019586324691772, -46.59159851074219],
    [0.12800699472427368, 1.187919020652771, 3.71494460105896, -73.54055786132812],
    [0.0, 0.0, 0.0, 1.0]
],
  "dcmmeta_reorient_transform": [
    [0.0, -1.0, 0.0, 63.0],
    [1.0, 0.0, 0.0, 0.0],
    [0.0, 0.0, 1.0, 0.0],
    [0.0, 0.0, 0.0, 1.0]
],
  "dcmmeta_shape": [64, 64, 33, 210],
  "dcmmeta_slice_dim": 2,
  "dcmmeta_version": 0.6,
  "global": {
    "const": {
      "AcquisitionMatrix": [64, 0, 0, 64],
      "AngioFlag": "N",
      "BitsAllocated": 16,
      "BitsStored": 12,
      "Columns": 384,
      "EchoNumbers": 1,
      "EchoTime": 30.0,
      "EchoTrainLength": 1,
      "FlipAngle": 78.0,
      "HighBit": 11,
      "ImageOrientationPatient": [0.99892, 0.0184, 0.042669, 0.0, 0.918262, -0.395973],
      "ImagePositionPatient": [-574.730133, -576.55768, 170.884259],
      "ImageType": [
        "ORIGINAL",
        "PRIMARY",
        "M",
        "ND",
        "MOSAIC"
],
      "ImagedNucleus": "1H",
      "ImagingFrequency": 123.251745,
      "InPlanePhaseEncodingDirection": "COL",
      "MRAcquisitionType": "2D",
      "MagneticFieldStrength": 3.0,
      "Manufacturer": "SIEMENS",
      "ManufacturerModelName": "TrioTim",
      "Modality": "MR",
      "NumberOfAverages": 1.0,
      "NumberOfPhaseEncodingSteps": 64,
      "PercentPhaseFieldOfView": 100.0,
      "PercentSampling": 100.0,
      "PerformedProcedureStepStartTime": "095737.218000",
      "PhotometricInterpretation": "MONOCHROME2",
      "PixelAspectRatio": [1, 1],
      "PixelBandwidth": 2230.0,
      "PixelRepresentation": 0,
      "PixelSpacing": [3.0, 3.0],
      "ProtocolName": "CBU_DWEPI_BOLD210",
      "RepetitionTime": 2000.0,
      "Rows": 384,
      "SAR": 0.166426,
      "SamplesPerPixel": 1,
      "ScanOptions": "FS",
      "ScanningSequence": "EP",
      "SequenceName": "*epfid2d1_64",
      "SequenceVariant": "SK",
      "SeriesDescription": "CBU_DWEPI_BOLD210",
      "SeriesNumber": 6,
      "SeriesTime": "103039.468000",
      "SliceLocation": -44.601846,
      "SliceThickness": 3.0,
      "SmallestImagePixelValue": 0,
      "SoftwareVersions": "syngo MR B15",
      "SpacingBetweenSlices": 4.05,
      "SpecificCharacterSet": "ISO_IR 100",
      "StudyID": "1",
      "StudyTime": "095737.046000",
      "TransmitCoilName": "Body",
      "VariableFlipAngleFlag": "N",
      "WindowCenterWidthExplanation": "Algo1",
      "dBdt": 0.0},
    "slices": {}
  },
  "time": {
    "samples": {
      "AcquisitionNumber": [1, 2, 3, 4, 5, 6, 7, 8, 9, 10, 11, 12, 13, 14, 15, 16, 17, 18, 19, 20, 21, 22, 23, 24, 25, 26, 27, 28, 29, 30, 31, 32, 33, 34, 35, 36, 37, 38, 39, 40, 41, 42, 43, 44, 45, 46, 47, 48, 49, 50, 51, 52, 53, 54, 55, 56, 57, 58, 59, 60, 61, 62, 63, 64, 65, 66, 67, 68, 69, 70, 71, 72, 73, 74, 75, 76, 77, 78, 79, 80, 81, 82, 83, 84, 85, 86, 87, 88, 89, 90, 91, 92, 93, 94, 95, 96, 97, 98, 99, 100, 101, 102, 103, 104, 105, 106, 107, 108, 109, 110, 111, 112, 113, 114, 115, 116, 117, 118, 119, 120, 121, 122, 123, 124, 125, 126, 127, 128, 129, 130, 131, 132, 133, 134, 135, 136, 137, 138, 139, 140, 141, 142, 143, 144, 145, 146, 147, 148, 149, 150, 151, 152, 153, 154, 155, 156, 157, 158, 159, 160, 161, 162, 163, 164, 165, 166, 167, 168, 169, 170, 171, 172, 173, 174, 175, 176, 177, 178, 179, 180, 181, 182, 183, 184, 185, 186, 187, 188, 189, 190, 191, 192, 193, 194, 195, 196, 197, 198, 199, 200, 201, 202, 203, 204, 205, 206, 207, 208, 209, 210],
      "AcquisitionTime": ["103035.955000", "103037.962500", "103039.970000", "103041.977500", "103043.987500", "103045.995000", "103048.002500", "103050.010000", "103052.017500", "103054.027500", "103056.035000", "103058.042500", "103100.050000", "103102.060000", "103104.067500", "103106.075000", "103108.082500", "103110.090000", "103112.100000", "103114.107500", "103116.115000", "103118.122500", "103120.130000", "103122.140000", "103124.147500", "103126.155000", "103128.162500", "103130.172500", "103132.180000", "103134.187500", "103136.195000", "103138.202500", "103140.212500", "103142.220000", "103144.227500", "103146.235000", "103148.242500", "103150.252500", "103152.260000", "103154.267500", "103156.275000", "103158.285000", "103200.292500", "103202.300000", "103204.307500", "103206.315000", "103208.325000", "103210.332500", "103212.340000", "103214.347500", "103216.355000", "103218.365000", "103220.372500", "103222.380000", "103224.387500", "103226.395000", "103228.405000", "103230.412500", "103232.420000", "103234.427500", "103236.437500", "103238.445000", "103240.452500", "103242.460000", "103244.467500", "103246.477500", "103248.485000", "103250.492500", "103252.500000", "103254.507500", "103256.517500", "103258.525000", "103300.532500", "103302.540000", "103304.550000", "103306.557500", "103308.565000", "103310.572500", "103312.580000", "103314.590000", "103316.597500", "103318.605000", "103320.612500", "103322.620000", "103324.630000", "103326.637500", "103328.645000", "103330.652500", "103332.662500", "103334.670000", "103336.677500", "103338.685000", "103340.692500", "103342.702500", "103344.710000", "103346.717500", "103348.725000", "103350.732500", "103352.742500", "103354.750000", "103356.757500", "103358.765000", "103400.772500", "103402.782500", "103404.790000", "103406.797500", "103408.805000", "103410.815000", "103412.822500", "103414.830000", "103416.837500", "103418.845000", "103420.855000", "103422.862500", "103424.870000", "103426.877500", "103428.885000", "103430.895000", "103432.902500", "103434.910000", "103436.917500", "103438.927500", "103440.935000", "103442.942500", "103444.950000", "103446.957500", "103448.967500", "103450.975000", "103452.982500", "103454.990000", "103456.997500", "103459.007500", "103501.015000", "103503.022500", "103505.030000", "103507.040000", "103509.047500", "103511.055000", "103513.062500", "103515.070000", "103517.080000", "103519.087500", "103521.095000", "103523.102500", "103525.110000", "103527.120000", "103529.127500", "103531.135000", "103533.142500", "103535.150000", "103537.160000", "103539.167500", "103541.175000", "103543.182500", "103545.192500", "103547.200000", "103549.207500", "103551.215000", "103553.222500", "103555.232500", "103557.240000", "103559.247500", "103601.255000", "103603.262500", "103605.272500", "103607.280000", "103609.287500", "103611.295000", "103613.305000", "103615.312500", "103617.320000", "103619.327500", "103621.335000", "103623.345000", "103625.352500", "103627.360000", "103629.367500", "103631.375000", "103633.385000", "103635.392500", "103637.400000", "103639.407500", "103641.417500", "103643.425000", "103645.432500", "103647.440000", "103649.447500", "103651.457500", "103653.465000", "103655.472500", "103657.480000", "103659.487500", "103701.497500", "103703.505000", "103705.512500", "103707.520000", "103709.527500", "103711.537500", "103713.545000", "103715.552500", "103717.560000", "103719.570000", "103721.577500", "103723.585000", "103725.592500", "103727.600000", "103729.610000", "103731.617500", "103733.625000", "103735.632500"],
      "ContentTime": ["103039.468000", "103041.468000", "103043.468000", "103045.468000", "103047.468000", "103049.468000", "103051.468000", "103053.468000", "103055.468000", "103057.468000", "103059.468000", "103101.468000", "103103.468000", "103105.468000", "103107.468000", "103109.468000", "103111.468000", "103113.468000", "103115.468000", "103117.468000", "103119.468000", "103121.468000", "103123.468000", "103125.468000", "103127.468000", "103129.468000", "103131.468000", "103133.468000", "103135.468000", "103137.468000", "103139.468000", "103141.468000", "103143.468000", "103145.468000", "103147.468000", "103149.468000", "103151.468000", "103153.468000", "103155.468000", "103157.468000", "103159.468000", "103201.468000", "103203.468000", "103205.468000", "103207.468000", "103209.468000", "103211.468000", "103213.468000", "103215.468000", "103217.468000", "103219.468000", "103221.468000", "103223.468000", "103225.468000", "103227.468000", "103229.468000", "103231.468000", "103233.468000", "103235.468000", "103237.468000", "103239.468000", "103241.468000", "103243.468000", "103245.468000", "103247.468000", "103249.468000", "103251.468000", "103253.468000", "103255.468000", "103257.468000", "103259.468000", "103301.468000", "103303.468000", "103305.468000", "103307.468000", "103309.468000", "103311.468000", "103313.468000", "103315.468000", "103317.468000", "103319.468000", "103321.468000", "103323.468000", "103325.468000", "103327.468000", "103329.468000", "103331.468000", "103333.468000", "103335.468000", "103337.468000", "103339.468000", "103341.468000", "103343.468000", "103345.468000", "103347.468000", "103349.468000", "103351.468000", "103353.468000", "103355.468000", "103357.468000", "103359.468000", "103401.468000", "103403.468000", "103405.468000", "103407.468000", "103409.468000", "103411.468000", "103413.468000", "103415.468000", "103417.468000", "103419.468000", "103421.468000", "103423.468000", "103425.468000", "103427.468000", "103429.468000", "103431.468000", "103433.468000", "103435.468000", "103437.468000", "103439.468000", "103441.468000", "103443.468000", "103445.468000", "103447.468000", "103449.468000", "103451.468000", "103453.468000", "103455.468000", "103457.468000", "103459.468000", "103501.468000", "103503.468000", "103505.468000", "103507.468000", "103509.468000", "103511.468000", "103513.468000", "103515.468000", "103517.468000", "103519.468000", "103521.468000", "103523.468000", "103525.468000", "103527.468000", "103529.468000", "103531.468000", "103533.468000", "103535.468000", "103537.468000", "103539.468000", "103541.468000", "103543.468000", "103545.468000", "103547.468000", "103549.468000", "103551.468000", "103553.468000", "103555.468000", "103557.468000", "103559.468000", "103601.468000", "103603.468000", "103605.468000", "103607.468000", "103609.468000", "103611.468000", "103613.468000", "103615.468000", "103617.468000", "103619.468000", "103621.468000", "103623.468000", "103625.468000", "103627.468000", "103629.468000", "103631.468000", "103633.468000", "103635.468000", "103637.468000", "103639.468000", "103641.468000", "103643.468000", "103645.468000", "103647.468000", "103649.468000", "103651.468000", "103653.468000", "103655.468000", "103657.468000", "103659.468000", "103701.468000", "103703.468000", "103705.468000", "103707.468000", "103709.468000", "103711.468000", "103713.468000", "103715.468000", "103717.468000", "103719.468000", "103721.468000", "103723.468000", "103725.468000", "103727.468000", "103729.468000", "103731.468000", "103733.468000", "103735.468000", "103737.109000"],
      "InstanceCreationTime": ["103039.468000", "103041.468000", "103043.468000", "103045.468000", "103047.468000", "103049.468000", "103051.468000", "103053.468000", "103055.468000", "103057.468000", "103059.468000", "103101.468000", "103103.468000", "103105.468000", "103107.468000", "103109.468000", "103111.468000", "103113.468000", "103115.468000", "103117.468000", "103119.468000", "103121.468000", "103123.468000", "103125.468000", "103127.468000", "103129.468000", "103131.468000", "103133.468000", "103135.468000", "103137.468000", "103139.468000", "103141.468000", "103143.468000", "103145.468000", "103147.468000", "103149.468000", "103151.468000", "103153.468000", "103155.468000", "103157.468000", "103159.468000", "103201.468000", "103203.468000", "103205.468000", "103207.468000", "103209.468000", "103211.468000", "103213.468000", "103215.468000", "103217.468000", "103219.468000", "103221.468000", "103223.468000", "103225.468000", "103227.468000", "103229.468000", "103231.468000", "103233.468000", "103235.468000", "103237.468000", "103239.468000", "103241.468000", "103243.468000", "103245.468000", "103247.468000", "103249.468000", "103251.468000", "103253.468000", "103255.468000", "103257.468000", "103259.468000", "103301.468000", "103303.468000", "103305.468000", "103307.468000", "103309.468000", "103311.468000", "103313.468000", "103315.468000", "103317.468000", "103319.468000", "103321.468000", "103323.468000", "103325.468000", "103327.468000", "103329.468000", "103331.468000", "103333.468000", "103335.468000", "103337.468000", "103339.468000", "103341.468000", "103343.468000", "103345.468000", "103347.468000", "103349.468000", "103351.468000", "103353.468000", "103355.468000", "103357.468000", "103359.468000", "103401.468000", "103403.468000", "103405.468000", "103407.468000", "103409.468000", "103411.468000", "103413.468000", "103415.468000", "103417.468000", "103419.468000", "103421.468000", "103423.468000", "103425.468000", "103427.468000", "103429.468000", "103431.468000", "103433.468000", "103435.468000", "103437.468000", "103439.468000", "103441.468000", "103443.468000", "103445.468000", "103447.468000", "103449.468000", "103451.468000", "103453.468000", "103455.468000", "103457.468000", "103459.468000", "103501.468000", "103503.468000", "103505.468000", "103507.468000", "103509.468000", "103511.468000", "103513.468000", "103515.468000", "103517.468000", "103519.468000", "103521.468000", "103523.468000", "103525.468000", "103527.468000", "103529.468000", "103531.468000", "103533.468000", "103535.468000", "103537.468000", "103539.468000", "103541.468000", "103543.468000", "103545.468000", "103547.468000", "103549.468000", "103551.468000", "103553.468000", "103555.468000", "103557.468000", "103559.468000", "103601.468000", "103603.468000", "103605.468000", "103607.468000", "103609.468000", "103611.468000", "103613.468000", "103615.468000", "103617.468000", "103619.468000", "103621.468000", "103623.468000", "103625.468000", "103627.468000", "103629.468000", "103631.468000", "103633.468000", "103635.468000", "103637.468000", "103639.468000", "103641.468000", "103643.468000", "103645.468000", "103647.468000", "103649.468000", "103651.468000", "103653.468000", "103655.468000", "103657.468000", "103659.468000", "103701.468000", "103703.468000", "103705.468000", "103707.468000", "103709.468000", "103711.468000", "103713.468000", "103715.468000", "103717.468000", "103719.468000", "103721.468000", "103723.468000", "103725.468000", "103727.468000", "103729.468000", "103731.468000", "103733.468000", "103735.468000", "103737.109000"],
      "InstanceNumber": [1, 2, 3, 4, 5, 6, 7, 8, 9, 10, 11, 12, 13, 14, 15, 16, 17, 18, 19, 20, 21, 22, 23, 24, 25, 26, 27, 28, 29, 30, 31, 32, 33, 34, 35, 36, 37, 38, 39, 40, 41, 42, 43, 44, 45, 46, 47, 48, 49, 50, 51, 52, 53, 54, 55, 56, 57, 58, 59, 60, 61, 62, 63, 64, 65, 66, 67, 68, 69, 70, 71, 72, 73, 74, 75, 76, 77, 78, 79, 80, 81, 82, 83, 84, 85, 86, 87, 88, 89, 90, 91, 92, 93, 94, 95, 96, 97, 98, 99, 100, 101, 102, 103, 104, 105, 106, 107, 108, 109, 110, 111, 112, 113, 114, 115, 116, 117, 118, 119, 120, 121, 122, 123, 124, 125, 126, 127, 128, 129, 130, 131, 132, 133, 134, 135, 136, 137, 138, 139, 140, 141, 142, 143, 144, 145, 146, 147, 148, 149, 150, 151, 152, 153, 154, 155, 156, 157, 158, 159, 160, 161, 162, 163, 164, 165, 166, 167, 168, 169, 170, 171, 172, 173, 174, 175, 176, 177, 178, 179, 180, 181, 182, 183, 184, 185, 186, 187, 188, 189, 190, 191, 192, 193, 194, 195, 196, 197, 198, 199, 200, 201, 202, 203, 204, 205, 206, 207, 208, 209, 210],
      "LargestImagePixelValue": [2246, 2137, 2080, 2079, 2077, 2066, 2049, 2072, 2090, 2078, 2075, 2090, 2062, 2080, 2075, 2069, 2073, 2072, 2075, 2071, 2060, 2077, 2096, 2086, 2078, 2051, 2051, 2058, 2084, 2096, 2093, 2108, 2088, 2079, 2063, 2079, 2073, 2149, 2071, 2075, 2067, 2080, 2110, 2076, 2082, 2070, 2078, 2105, 2101, 2100, 2104, 2097, 2101, 2095, 2090, 2086, 2069, 2064, 2072, 2089, 2091, 2071, 2065, 2077, 2097, 2094, 2082, 2070, 2088, 2084, 2081, 2091, 2085, 2090, 2105, 2106, 2102, 2119, 2121, 2099, 2077, 2087, 2089, 2099, 2091, 2099, 2088, 2096, 2104, 2109, 2106, 2102, 2125, 2118, 2130, 2125, 2093, 2104, 2086, 2109, 2093, 2086, 2109, 2098, 2085, 2095, 2107, 2091, 2119, 2107, 2101, 2091, 2100, 2110, 2093, 2110, 2124, 2125, 2112, 2113, 2114, 2102, 2131, 2118, 2131, 2122, 2126, 2129, 2120, 2118, 2133, 2120, 2121, 2133, 2140, 2151, 2121, 2129, 2128, 2123, 2121, 2124, 2125, 2107, 2102, 2118, 2111, 2127, 2117, 2122, 2108, 2122, 2135, 2139, 2137, 2140, 2126, 2133, 2110, 2126, 2122, 2122, 2124, 2142, 2118, 2107, 2120, 2129, 2132, 2116, 2119, 2124, 2144, 2138, 2152, 2139, 2129, 2140, 2144, 2129, 2146, 2155, 2136, 2123, 2126, 2134, 2116, 2133, 2113, 2131, 2131, 2134, 2120, 2127, 2145, 2127, 2130, 2143, 2136, 2143, 2126, 2137, 2147, 2138, 2132, 2131, 2143, 2141, 2137, 2131],
      "WindowCenter": [818.0, 813.0, 811.0, 811.0, 811.0, 810.0, 808.0, 808.0, 808.0, 809.0, 810.0, 810.0, 809.0, 808.0, 808.0, 810.0, 812.0, 812.0, 810.0, 808.0, 809.0, 809.0, 809.0, 810.0, 808.0, 805.0, 804.0, 805.0, 806.0, 809.0, 811.0, 810.0, 809.0, 809.0, 810.0, 810.0, 809.0, 810.0, 811.0, 810.0, 811.0, 810.0, 811.0, 811.0, 811.0, 812.0, 812.0, 811.0, 809.0, 810.0, 810.0, 811.0, 811.0, 810.0, 809.0, 810.0, 810.0, 810.0, 809.0, 810.0, 811.0, 811.0, 809.0, 809.0, 810.0, 811.0, 811.0, 811.0, 811.0, 811.0, 811.0, 811.0, 811.0, 811.0, 810.0, 810.0, 810.0, 810.0, 811.0, 811.0, 811.0, 810.0, 811.0, 811.0, 811.0, 810.0, 811.0, 811.0, 810.0, 809.0, 809.0, 809.0, 809.0, 808.0, 809.0, 810.0, 811.0, 811.0, 811.0, 811.0, 812.0, 813.0, 812.0, 811.0, 811.0, 811.0, 812.0, 811.0, 811.0, 810.0, 809.0, 808.0, 807.0, 806.0, 806.0, 807.0, 808.0, 809.0, 810.0, 810.0, 811.0, 811.0, 812.0, 812.0, 813.0, 812.0, 812.0, 811.0, 811.0, 811.0, 811.0, 811.0, 812.0, 811.0, 812.0, 812.0, 811.0, 812.0, 811.0, 811.0, 811.0, 811.0, 812.0, 812.0, 812.0, 812.0, 812.0, 812.0, 813.0, 813.0, 813.0, 813.0, 813.0, 812.0, 813.0, 813.0, 813.0, 812.0, 812.0, 813.0, 813.0, 812.0, 813.0, 813.0, 813.0, 813.0, 813.0, 813.0, 813.0, 814.0, 813.0, 812.0, 812.0, 813.0, 813.0, 812.0, 812.0, 811.0, 812.0, 812.0, 813.0, 814.0, 813.0, 813.0, 813.0, 814.0, 814.0, 814.0, 814.0, 814.0, 813.0, 813.0, 813.0, 812.0, 813.0, 812.0, 813.0, 813.0, 812.0, 812.0, 812.0, 812.0, 813.0, 812.0, 813.0, 812.0, 813.0, 814.0, 815.0, 815.0],
      "WindowWidth": [1704.0, 1691.0, 1685.0, 1684.0, 1683.0, 1681.0, 1678.0, 1676.0, 1677.0, 1679.0, 1683.0, 1682.0, 1679.0, 1677.0, 1678.0, 1682.0, 1685.0, 1685.0, 1682.0, 1678.0, 1680.0, 1680.0, 1680.0, 1681.0, 1676.0, 1670.0, 1668.0, 1669.0, 1674.0, 1681.0, 1683.0, 1682.0, 1681.0, 1680.0, 1683.0, 1681.0, 1680.0, 1685.0, 1684.0, 1683.0, 1684.0, 1683.0, 1684.0, 1684.0, 1684.0, 1686.0, 1686.0, 1684.0, 1680.0, 1681.0, 1683.0, 1683.0, 1683.0, 1681.0, 1681.0, 1683.0, 1682.0, 1681.0, 1679.0, 1682.0, 1685.0, 1683.0, 1681.0, 1680.0, 1681.0, 1684.0, 1685.0, 1684.0, 1683.0, 1683.0, 1685.0, 1684.0, 1683.0, 1683.0, 1682.0, 1682.0, 1681.0, 1683.0, 1684.0, 1685.0, 1684.0, 1683.0, 1684.0, 1685.0, 1683.0, 1681.0, 1685.0, 1685.0, 1682.0, 1680.0, 1680.0, 1680.0, 1679.0, 1678.0, 1679.0, 1683.0, 1683.0, 1684.0, 1684.0, 1685.0, 1686.0, 1688.0, 1686.0, 1684.0, 1683.0, 1685.0, 1686.0, 1684.0, 1683.0, 1681.0, 1680.0, 1679.0, 1675.0, 1673.0, 1673.0, 1675.0, 1679.0, 1681.0, 1683.0, 1683.0, 1684.0, 1686.0, 1688.0, 1686.0, 1689.0, 1687.0, 1687.0, 1685.0, 1684.0, 1685.0, 1685.0, 1683.0, 1687.0, 1685.0, 1686.0, 1687.0, 1686.0, 1687.0, 1685.0, 1684.0, 1685.0, 1685.0, 1687.0, 1688.0, 1687.0, 1687.0, 1687.0, 1688.0, 1689.0, 1689.0, 1689.0, 1690.0, 1689.0, 1687.0, 1689.0, 1689.0, 1689.0, 1687.0, 1687.0, 1689.0, 1689.0, 1688.0, 1688.0, 1690.0, 1690.0, 1689.0, 1689.0, 1689.0, 1690.0, 1691.0, 1688.0, 1687.0, 1688.0, 1690.0, 1689.0, 1687.0, 1686.0, 1685.0, 1687.0, 1688.0, 1690.0, 1691.0, 1689.0, 1689.0, 1689.0, 1691.0, 1690.0, 1691.0, 1692.0, 1692.0, 1691.0, 1689.0, 1689.0, 1687.0, 1689.0, 1688.0, 1689.0, 1688.0, 1687.0, 1688.0, 1688.0, 1687.0, 1688.0, 1688.0, 1689.0, 1688.0, 1689.0, 1692.0, 1694.0, 1694.0]
    },
    "slices": {}
  }
}