{
  "AcquisitionMatrixPE": 64,
  "AcquisitionNumber": 1,
  "AcquisitionTime": "10:07:2.500000",
  "BandwidthPerPixelPhaseEncode": 30.637,
  "BaseResolution": 64,
  "BidsGuess": [
    "func",
    "_acq-epfid2_dir-AP_run-4_bold"
],
  "CoilCombinationMethod": "Sum of Squares",
  "CoilString": "C:HEA;HEP",
  "ConversionSoftware": "dcm2niix",
  "ConversionSoftwareVersion": "v1.0.20240202",
  "DerivedVendorReportedEchoSpacing": 0.000510004,
  "DeviceSerialNumber": "35119",
  "DwellTime": 3.5e-06,
  "EchoTime": 0.03,
  "EffectiveEchoSpacing": 0.000510004,
  "FlipAngle": 78,
  "HeudiconvVersion": "1.1.6",
  "ImageComments": "V",
  "ImageOrientationPatientDICOM": [0.99996, 0.004146, 0.0079, 0, 0.885469, -0.464699],
  "ImageOrientationText": "Tra>Cor(-27.7)>Sag(0.5)",
  "ImageType": [
    "ORIGINAL",
    "PRIMARY",
    "M",
    "ND",
    "MOSAIC"
],
  "ImagingFrequency": 123.251781,
  "InPlanePhaseEncodingDirectionDICOM": "COL",
  "InstitutionAddress": "Chaucer Road  15,Cambridge,UK,GB,CB2 2EF",
  "InstitutionName": "MRC-CBU",
  "MRAcquisitionType": "2D",
  "MagneticFieldStrength": 3,
  "Manufacturer": "Siemens",
  "ManufacturersModelName": "TrioTim",
  "MatrixCoilMode": "SENSE",
  "Modality": "MR",
  "NonlinearGradientCorrection": false,
  "PartialFourier": 1,
  "PatientPosition": "HFS",
  "PercentPhaseFOV": 100,
  "PercentSampling": 100,
  "PhaseEncodingDirection": "j-",
  "PhaseEncodingSteps": 64,
  "PhaseResolution": 1,
  "PixelBandwidth": 2230,
  "ProcedureStepDescription": "CBU^Neuroimaging",
  "ProtocolName": "CBU_DWEPI_BOLD210",
  "PulseSequenceDetails": "%SiemensSeq%\\ep2d_bold",
  "ReceiveCoilName": "HeadMatrix",
  "ReconMatrixPE": 64,
  "RepetitionTime": 2,
  "SAR": 0.152383,
  "ScanOptions": "FS",
  "ScanningSequence": "EP",
  "SequenceName": "*epfid2d1_64",
  "SequenceVariant": "SK",
  "SeriesDescription": "CBU_DWEPI_BOLD210",
  "SeriesNumber": 4,
  "ShimSetting": [-7804, -8718, -2025, 813, 324, 454, 129, 9],
  "SliceThickness": 3,
  "SliceTiming": [0, 1.035, 0.0625, 1.095, 0.1225, 1.1575, 0.1825, 1.2175, 0.245, 1.2775, 0.305, 1.34, 0.365, 1.4, 0.4275, 1.46, 0.4875, 1.5225, 0.5475, 1.5825, 0.61, 1.6425, 0.67, 1.705, 0.73, 1.765, 0.7925, 1.825, 0.8525, 1.8875, 0.9125, 1.9475, 0.975],
  "SoftwareVersions": "syngo MR B15",
  "SpacingBetweenSlices": 3.9,
  "StationName": "MRC35119",
  "TaskName": "faceprocessing",
  "TotalReadoutTime": 0.0321303,
  "TxRefAmp": 333.583,
  "dcmmeta_affine": [
    [-2.999880075454712, 0.0, 0.03479520231485367, 100.57645416259766],
    [-0.012438000179827213, 2.656407117843628, -1.8122535943984985, -47.336830139160156],
    [0.02370000071823597, 1.3940969705581665, 3.453191041946411, -82.5189208984375],
    [0.0, 0.0, 0.0, 1.0]
],
  "dcmmeta_reorient_transform": [
    [0.0, -1.0, 0.0, 63.0],
    [1.0, 0.0, 0.0, 0.0],
    [0.0, 0.0, 1.0, 0.0],
    [0.0, 0.0, 0.0, 1.0]
],
  "dcmmeta_shape": [64, 64, 33, 210],
  "dcmmeta_slice_dim": 2,
  "dcmmeta_version": 0.6,
  "global": {
    "const": {
      "AcquisitionMatrix": [64, 0, 0, 64],
      "AngioFlag": "N",
      "BitsAllocated": 16,
      "BitsStored": 12,
      "Columns": 384,
      "EchoNumbers": 1,
      "EchoTime": 30.0,
      "EchoTrainLength": 1,
      "FlipAngle": 78.0,
      "HighBit": 11,
      "ImageOrientationPatient": [0.99996, 0.004146, 0.0079, -0.0, 0.885469, -0.464699],
      "ImagePositionPatient": [-580.557254, -547.032012, 224.572707],
      "ImageType": [
        "ORIGINAL",
        "PRIMARY",
        "M",
        "ND",
        "MOSAIC"
],
      "ImagedNucleus": "1H",
      "ImagingFrequency": 123.251781,
      "InPlanePhaseEncodingDirection": "COL",
      "MRAcquisitionType": "2D",
      "MagneticFieldStrength": 3.0,
      "Manufacturer": "SIEMENS",
      "ManufacturerModelName": "TrioTim",
      "Modality": "MR",
      "NumberOfAverages": 1.0,
      "NumberOfPhaseEncodingSteps": 64,
      "PercentPhaseFieldOfView": 100.0,
      "PercentSampling": 100.0,
      "PerformedProcedureStepStartTime": "094337.531000",
      "PhotometricInterpretation": "MONOCHROME2",
      "PixelAspectRatio": [1, 1],
      "PixelBandwidth": 2230.0,
      "PixelRepresentation": 0,
      "PixelSpacing": [3.0, 3.0],
      "ProtocolName": "CBU_DWEPI_BOLD210",
      "RepetitionTime": 2000.0,
      "Rows": 384,
      "SAR": 0.152383,
      "SamplesPerPixel": 1,
      "ScanOptions": "FS",
      "ScanningSequence": "EP",
      "SequenceName": "*epfid2d1_64",
      "SequenceVariant": "SK",
      "SeriesDescription": "CBU_DWEPI_BOLD210",
      "SeriesNumber": 4,
      "SeriesTime": "100706.515000",
      "SliceLocation": -50.170833,
      "SliceThickness": 3.0,
      "SmallestImagePixelValue": 0,
      "SoftwareVersions": "syngo MR B15",
      "SpacingBetweenSlices": 3.9,
      "SpecificCharacterSet": "ISO_IR 100",
      "StudyID": "1",
      "StudyTime": "094337.468000",
      "TransmitCoilName": "Body",
      "VariableFlipAngleFlag": "N",
      "WindowCenterWidthExplanation": "Algo1",
      "dBdt": 0.0},
    "slices": {}
  },
  "time": {
    "samples": {
      "AcquisitionNumber": [1, 2, 3, 4, 5, 6, 7, 8, 9, 10, 11, 12, 13, 14, 15, 16, 17, 18, 19, 20, 21, 22, 23, 24, 25, 26, 27, 28, 29, 30, 31, 32, 33, 34, 35, 36, 37, 38, 39, 40, 41, 42, 43, 44, 45, 46, 47, 48, 49, 50, 51, 52, 53, 54, 55, 56, 57, 58, 59, 60, 61, 62, 63, 64, 65, 66, 67, 68, 69, 70, 71, 72, 73, 74, 75, 76, 77, 78, 79, 80, 81, 82, 83, 84, 85, 86, 87, 88, 89, 90, 91, 92, 93, 94, 95, 96, 97, 98, 99, 100, 101, 102, 103, 104, 105, 106, 107, 108, 109, 110, 111, 112, 113, 114, 115, 116, 117, 118, 119, 120, 121, 122, 123, 124, 125, 126, 127, 128, 129, 130, 131, 132, 133, 134, 135, 136, 137, 138, 139, 140, 141, 142, 143, 144, 145, 146, 147, 148, 149, 150, 151, 152, 153, 154, 155, 156, 157, 158, 159, 160, 161, 162, 163, 164, 165, 166, 167, 168, 169, 170, 171, 172, 173, 174, 175, 176, 177, 178, 179, 180, 181, 182, 183, 184, 185, 186, 187, 188, 189, 190, 191, 192, 193, 194, 195, 196, 197, 198, 199, 200, 201, 202, 203, 204, 205, 206, 207, 208, 209, 210],
      "AcquisitionTime": ["100702.500000", "100704.507500", "100706.517500", "100708.525000", "100710.532500", "100712.540000", "100714.547500", "100716.557500", "100718.565000", "100720.572500", "100722.580000", "100724.590000", "100726.597500", "100728.605000", "100730.612500", "100732.620000", "100734.630000", "100736.637500", "100738.645000", "100740.652500", "100742.660000", "100744.670000", "100746.677500", "100748.685000", "100750.692500", "100752.702500", "100754.710000", "100756.717500", "100758.725000", "100800.732500", "100802.742500", "100804.750000", "100806.757500", "100808.765000", "100810.772500", "100812.782500", "100814.790000", "100816.797500", "100818.805000", "100820.812500", "100822.822500", "100824.830000", "100826.837500", "100828.845000", "100830.855000", "100832.862500", "100834.870000", "100836.877500", "100838.885000", "100840.895000", "100842.902500", "100844.910000", "100846.917500", "100848.925000", "100850.935000", "100852.942500", "100854.950000", "100856.957500", "100858.967500", "100900.975000", "100902.982500", "100904.990000", "100906.997500", "100909.007500", "100911.015000", "100913.022500", "100915.030000", "100917.037500", "100919.047500", "100921.055000", "100923.062500", "100925.070000", "100927.080000", "100929.087500", "100931.095000", "100933.102500", "100935.110000", "100937.120000", "100939.127500", "100941.135000", "100943.142500", "100945.150000", "100947.160000", "100949.167500", "100951.175000", "100953.182500", "100955.190000", "100957.200000", "100959.207500", "101001.215000", "101003.222500", "101005.232500", "101007.240000", "101009.247500", "101011.255000", "101013.262500", "101015.272500", "101017.280000", "101019.287500", "101021.295000", "101023.302500", "101025.312500", "101027.320000", "101029.327500", "101031.335000", "101033.345000", "101035.352500", "101037.360000", "101039.367500", "101041.375000", "101043.385000", "101045.392500", "101047.400000", "101049.407500", "101051.415000", "101053.425000", "101055.432500", "101057.440000", "101059.447500", "101101.457500", "101103.465000", "101105.472500", "101107.480000", "101109.487500", "101111.497500", "101113.505000", "101115.512500", "101117.520000", "101119.527500", "101121.537500", "101123.545000", "101125.552500", "101127.560000", "101129.567500", "101131.577500", "101133.585000", "101135.592500", "101137.600000", "101139.610000", "101141.617500", "101143.625000", "101145.632500", "101147.640000", "101149.650000", "101151.657500", "101153.665000", "101155.672500", "101157.680000", "101159.690000", "101201.697500", "101203.705000", "101205.712500", "101207.722500", "101209.730000", "101211.737500", "101213.745000", "101215.752500", "101217.762500", "101219.770000", "101221.777500", "101223.785000", "101225.792500", "101227.802500", "101229.810000", "101231.817500", "101233.825000", "101235.835000", "101237.842500", "101239.850000", "101241.857500", "101243.865000", "101245.875000", "101247.882500", "101249.890000", "101251.897500", "101253.905000", "101255.915000", "101257.922500", "101259.930000", "101301.937500", "101303.945000", "101305.955000", "101307.962500", "101309.970000", "101311.977500", "101313.987500", "101315.995000", "101318.002500", "101320.010000", "101322.017500", "101324.027500", "101326.035000", "101328.042500", "101330.050000", "101332.057500", "101334.067500", "101336.075000", "101338.082500", "101340.090000", "101342.100000", "101344.107500", "101346.115000", "101348.122500", "101350.130000", "101352.140000", "101354.147500", "101356.155000", "101358.162500", "101400.170000", "101402.180000"],
      "ContentTime": ["100706.531000", "100708.515000", "100710.515000", "100712.515000", "100714.515000", "100716.515000", "100718.515000", "100720.515000", "100722.515000", "100724.515000", "100726.515000", "100728.515000", "100730.515000", "100732.515000", "100734.515000", "100736.515000", "100738.515000", "100740.515000", "100742.515000", "100744.515000", "100746.515000", "100748.515000", "100750.515000", "100752.515000", "100754.515000", "100756.515000", "100758.515000", "100800.515000", "100802.515000", "100804.515000", "100806.515000", "100808.515000", "100810.515000", "100812.515000", "100814.515000", "100816.515000", "100818.515000", "100820.515000", "100822.515000", "100824.515000", "100826.515000", "100828.515000", "100830.515000", "100832.515000", "100834.515000", "100836.515000", "100838.515000", "100840.515000", "100842.515000", "100844.515000", "100846.515000", "100848.515000", "100850.515000", "100852.515000", "100854.515000", "100856.515000", "100858.515000", "100900.515000", "100902.515000", "100904.515000", "100906.515000", "100908.515000", "100910.515000", "100912.515000", "100914.515000", "100916.515000", "100918.515000", "100920.515000", "100922.515000", "100924.515000", "100926.515000", "100928.515000", "100930.515000", "100932.515000", "100934.515000", "100936.515000", "100938.515000", "100940.515000", "100942.515000", "100944.515000", "100946.515000", "100948.515000", "100950.515000", "100952.515000", "100954.515000", "100956.515000", "100958.515000", "101000.515000", "101002.515000", "101004.515000", "101006.515000", "101008.515000", "101010.515000", "101012.515000", "101014.515000", "101016.515000", "101018.515000", "101020.515000", "101022.515000", "101024.515000", "101026.515000", "101028.515000", "101030.515000", "101032.515000", "101034.515000", "101036.515000", "101038.515000", "101040.515000", "101042.515000", "101044.515000", "101046.515000", "101048.515000", "101050.515000", "101052.515000", "101054.515000", "101056.515000", "101058.515000", "101100.515000", "101102.515000", "101104.515000", "101106.515000", "101108.515000", "101110.515000", "101112.515000", "101114.515000", "101116.515000", "101118.515000", "101120.515000", "101122.515000", "101124.515000", "101126.515000", "101128.515000", "101130.515000", "101132.515000", "101134.515000", "101136.515000", "101138.515000", "101140.515000", "101142.515000", "101144.515000", "101146.515000", "101148.515000", "101150.515000", "101152.515000", "101154.515000", "101156.515000", "101158.515000", "101200.515000", "101202.515000", "101204.515000", "101206.515000", "101208.515000", "101210.515000", "101212.515000", "101214.515000", "101216.515000", "101218.515000", "101220.515000", "101222.515000", "101224.515000", "101226.515000", "101228.515000", "101230.515000", "101232.515000", "101234.515000", "101236.515000", "101238.515000", "101240.515000", "101242.515000", "101244.515000", "101246.515000", "101248.515000", "101250.515000", "101252.515000", "101254.515000", "101256.515000", "101258.515000", "101300.515000", "101302.515000", "101304.515000", "101306.515000", "101308.515000", "101310.515000", "101312.515000", "101314.515000", "101316.515000", "101318.515000", "101320.515000", "101322.515000", "101324.515000", "101326.515000", "101328.515000", "101330.515000", "101332.515000", "101334.515000", "101336.515000", "101338.515000", "101340.515000", "101342.515000", "101344.515000", "101346.515000", "101348.515000", "101350.515000", "101352.515000", "101354.515000", "101356.515000", "101358.515000", "101400.515000", "101402.515000", "101404.203000"],
      "InstanceCreationTime": ["100706.531000", "100708.515000", "100710.515000", "100712.515000", "100714.515000", "100716.515000", "100718.515000", "100720.515000", "100722.515000", "100724.515000", "100726.515000", "100728.515000", "100730.515000", "100732.515000", "100734.515000", "100736.515000", "100738.515000", "100740.515000", "100742.515000", "100744.515000", "100746.515000", "100748.515000", "100750.515000", "100752.515000", "100754.515000", "100756.515000", "100758.515000", "100800.515000", "100802.515000", "100804.515000", "100806.515000", "100808.515000", "100810.515000", "100812.515000", "100814.515000", "100816.515000", "100818.515000", "100820.515000", "100822.515000", "100824.515000", "100826.515000", "100828.515000", "100830.515000", "100832.515000", "100834.515000", "100836.515000", "100838.515000", "100840.515000", "100842.515000", "100844.515000", "100846.515000", "100848.515000", "100850.515000", "100852.515000", "100854.515000", "100856.515000", "100858.515000", "100900.515000", "100902.515000", "100904.515000", "100906.515000", "100908.515000", "100910.515000", "100912.515000", "100914.515000", "100916.515000", "100918.515000", "100920.515000", "100922.515000", "100924.515000", "100926.515000", "100928.515000", "100930.515000", "100932.515000", "100934.515000", "100936.515000", "100938.515000", "100940.515000", "100942.515000", "100944.515000", "100946.515000", "100948.515000", "100950.515000", "100952.515000", "100954.515000", "100956.515000", "100958.515000", "101000.515000", "101002.515000", "101004.515000", "101006.515000", "101008.515000", "101010.515000", "101012.515000", "101014.515000", "101016.515000", "101018.515000", "101020.515000", "101022.515000", "101024.515000", "101026.515000", "101028.515000", "101030.515000", "101032.515000", "101034.515000", "101036.515000", "101038.515000", "101040.515000", "101042.515000", "101044.515000", "101046.515000", "101048.515000", "101050.515000", "101052.515000", "101054.515000", "101056.515000", "101058.515000", "101100.515000", "101102.515000", "101104.515000", "101106.515000", "101108.515000", "101110.515000", "101112.515000", "101114.515000", "101116.515000", "101118.515000", "101120.515000", "101122.515000", "101124.515000", "101126.515000", "101128.515000", "101130.515000", "101132.515000", "101134.515000", "101136.515000", "101138.515000", "101140.515000", "101142.515000", "101144.515000", "101146.515000", "101148.515000", "101150.515000", "101152.515000", "101154.515000", "101156.515000", "101158.515000", "101200.515000", "101202.515000", "101204.515000", "101206.515000", "101208.515000", "101210.515000", "101212.515000", "101214.515000", "101216.515000", "101218.515000", "101220.515000", "101222.515000", "101224.515000", "101226.515000", "101228.515000", "101230.515000", "101232.515000", "101234.515000", "101236.515000", "101238.515000", "101240.515000", "101242.515000", "101244.515000", "101246.515000", "101248.515000", "101250.515000", "101252.515000", "101254.515000", "101256.515000", "101258.515000", "101300.515000", "101302.515000", "101304.515000", "101306.515000", "101308.515000", "101310.515000", "101312.515000", "101314.515000", "101316.515000", "101318.515000", "101320.515000", "101322.515000", "101324.515000", "101326.515000", "101328.515000", "101330.515000", "101332.515000", "101334.515000", "101336.515000", "101338.515000", "101340.515000", "101342.515000", "101344.515000", "101346.515000", "101348.515000", "101350.515000", "101352.515000", "101354.515000", "101356.515000", "101358.515000", "101400.515000", "101402.515000", "101404.203000"],
      "InstanceNumber": [1, 2, 3, 4, 5, 6, 7, 8, 9, 10, 11, 12, 13, 14, 15, 16, 17, 18, 19, 20, 21, 22, 23, 24, 25, 26, 27, 28, 29, 30, 31, 32, 33, 34, 35, 36, 37, 38, 39, 40, 41, 42, 43, 44, 45, 46, 47, 48, 49, 50, 51, 52, 53, 54, 55, 56, 57, 58, 59, 60, 61, 62, 63, 64, 65, 66, 67, 68, 69, 70, 71, 72, 73, 74, 75, 76, 77, 78, 79, 80, 81, 82, 83, 84, 85, 86, 87, 88, 89, 90, 91, 92, 93, 94, 95, 96, 97, 98, 99, 100, 101, 102, 103, 104, 105, 106, 107, 108, 109, 110, 111, 112, 113, 114, 115, 116, 117, 118, 119, 120, 121, 122, 123, 124, 125, 126, 127, 128, 129, 130, 131, 132, 133, 134, 135, 136, 137, 138, 139, 140, 141, 142, 143, 144, 145, 146, 147, 148, 149, 150, 151, 152, 153, 154, 155, 156, 157, 158, 159, 160, 161, 162, 163, 164, 165, 166, 167, 168, 169, 170, 171, 172, 173, 174, 175, 176, 177, 178, 179, 180, 181, 182, 183, 184, 185, 186, 187, 188, 189, 190, 191, 192, 193, 194, 195, 196, 197, 198, 199, 200, 201, 202, 203, 204, 205, 206, 207, 208, 209, 210],
      "LargestImagePixelValue": [1861, 1808, 1766, 1754, 1742, 1746, 1762, 1737, 1720, 1743, 1723, 1753, 1730, 1737, 1737, 1717, 1717, 1716, 1741, 1722, 1732, 1727, 1714, 1728, 1809, 1768, 1746, 1742, 1747, 1762, 1767, 1788, 1765, 1763, 1753, 1750, 1755, 1738, 1729, 1729, 1730, 1739, 1715, 1721, 1734, 1735, 1723, 1721, 1722, 1717, 1711, 1714, 1710, 1738, 1706, 1713, 1738, 1722, 1730, 1713, 1752, 1734, 1721, 1713, 1749, 1747, 1740, 1729, 1736, 1739, 1738, 1730, 1806, 1727, 1722, 1778, 1733, 1734, 1717, 1744, 1720, 1728, 1710, 1719, 1709, 1721, 1714, 1719, 1712, 1725, 1715, 1702, 1716, 1709, 1708, 1721, 1721, 1718, 1712, 1719, 1724, 1712, 1712, 1716, 1718, 1720, 1725, 1722, 1716, 1731, 1716, 1717, 1710, 1713, 1722, 1713, 1717, 1744, 1692, 1695, 1701, 1711, 1723, 1697, 1695, 1709, 1719, 1714, 1756, 1730, 1721, 1733, 1730, 1729, 1743, 1727, 1726, 1739, 1707, 1707, 1709, 1724, 1802, 1713, 1723, 1725, 1722, 1728, 1708, 1726, 1721, 1721, 1706, 1728, 1722, 1699, 1726, 1709, 1709, 1720, 1718, 1723, 1716, 1719, 1712, 1710, 1729, 1700, 1719, 1706, 1726, 1704, 1725, 1798, 1709, 1720, 1726, 1723, 1713, 1715, 1728, 1698, 1711, 1712, 1703, 1874, 1930, 1736, 1728, 1732, 1744, 1751, 1769, 1755, 1768, 1768, 1736, 1747, 1737, 1767, 1813, 1749, 1764, 1737, 1747, 1764, 1748, 1749, 1769, 1765],
      "WindowCenter": [752.0, 747.0, 745.0, 744.0, 745.0, 746.0, 747.0, 747.0, 746.0, 746.0, 747.0, 747.0, 746.0, 744.0, 743.0, 743.0, 744.0, 744.0, 743.0, 743.0, 744.0, 746.0, 747.0, 747.0, 748.0, 747.0, 747.0, 747.0, 747.0, 747.0, 748.0, 749.0, 749.0, 749.0, 748.0, 747.0, 747.0, 748.0, 747.0, 747.0, 746.0, 746.0, 746.0, 746.0, 747.0, 747.0, 746.0, 745.0, 745.0, 745.0, 745.0, 746.0, 746.0, 746.0, 745.0, 745.0, 746.0, 747.0, 747.0, 746.0, 748.0, 749.0, 749.0, 748.0, 746.0, 745.0, 744.0, 746.0, 748.0, 749.0, 749.0, 748.0, 748.0, 747.0, 749.0, 749.0, 749.0, 748.0, 746.0, 746.0, 745.0, 745.0, 746.0, 747.0, 748.0, 748.0, 747.0, 747.0, 747.0, 747.0, 747.0, 747.0, 747.0, 746.0, 746.0, 747.0, 748.0, 749.0, 748.0, 747.0, 746.0, 747.0, 748.0, 748.0, 747.0, 746.0, 746.0, 746.0, 747.0, 748.0, 749.0, 748.0, 748.0, 749.0, 749.0, 748.0, 748.0, 748.0, 748.0, 749.0, 748.0, 748.0, 747.0, 747.0, 748.0, 748.0, 748.0, 748.0, 750.0, 750.0, 749.0, 748.0, 747.0, 746.0, 747.0, 747.0, 749.0, 749.0, 749.0, 748.0, 748.0, 749.0, 748.0, 746.0, 746.0, 747.0, 747.0, 748.0, 747.0, 747.0, 748.0, 747.0, 747.0, 748.0, 749.0, 749.0, 749.0, 748.0, 748.0, 748.0, 749.0, 749.0, 748.0, 748.0, 747.0, 748.0, 749.0, 749.0, 749.0, 749.0, 749.0, 749.0, 749.0, 749.0, 748.0, 748.0, 749.0, 750.0, 750.0, 749.0, 748.0, 748.0, 748.0, 749.0, 749.0, 752.0, 760.0, 752.0, 750.0, 749.0, 748.0, 750.0, 751.0, 752.0, 751.0, 750.0, 750.0, 751.0, 751.0, 750.0, 749.0, 747.0, 747.0, 748.0, 748.0, 750.0, 750.0, 750.0, 749.0, 750.0],
      "WindowWidth": [1578.0, 1565.0, 1560.0, 1558.0, 1560.0, 1563.0, 1564.0, 1563.0, 1562.0, 1561.0, 1564.0, 1564.0, 1561.0, 1557.0, 1556.0, 1556.0, 1558.0, 1556.0, 1555.0, 1555.0, 1558.0, 1562.0, 1564.0, 1564.0, 1567.0, 1564.0, 1563.0, 1563.0, 1563.0, 1564.0, 1565.0, 1569.0, 1569.0, 1567.0, 1566.0, 1565.0, 1564.0, 1565.0, 1565.0, 1564.0, 1562.0, 1562.0, 1561.0, 1561.0, 1564.0, 1565.0, 1562.0, 1561.0, 1559.0, 1560.0, 1560.0, 1562.0, 1563.0, 1562.0, 1560.0, 1561.0, 1562.0, 1564.0, 1564.0, 1562.0, 1567.0, 1569.0, 1569.0, 1565.0, 1562.0, 1559.0, 1558.0, 1561.0, 1566.0, 1568.0, 1568.0, 1567.0, 1567.0, 1565.0, 1568.0, 1569.0, 1569.0, 1566.0, 1563.0, 1561.0, 1560.0, 1560.0, 1562.0, 1563.0, 1565.0, 1565.0, 1564.0, 1563.0, 1563.0, 1563.0, 1564.0, 1565.0, 1564.0, 1562.0, 1563.0, 1565.0, 1567.0, 1567.0, 1566.0, 1564.0, 1562.0, 1564.0, 1566.0, 1566.0, 1565.0, 1562.0, 1561.0, 1561.0, 1563.0, 1567.0, 1568.0, 1567.0, 1567.0, 1568.0, 1568.0, 1567.0, 1566.0, 1566.0, 1566.0, 1568.0, 1567.0, 1566.0, 1565.0, 1564.0, 1566.0, 1567.0, 1567.0, 1566.0, 1571.0, 1570.0, 1569.0, 1566.0, 1564.0, 1563.0, 1563.0, 1565.0, 1568.0, 1569.0, 1569.0, 1567.0, 1567.0, 1568.0, 1566.0, 1562.0, 1562.0, 1563.0, 1565.0, 1565.0, 1564.0, 1565.0, 1565.0, 1565.0, 1565.0, 1566.0, 1568.0, 1569.0, 1568.0, 1566.0, 1565.0, 1566.0, 1568.0, 1569.0, 1567.0, 1565.0, 1565.0, 1566.0, 1569.0, 1569.0, 1569.0, 1568.0, 1569.0, 1569.0, 1568.0, 1569.0, 1566.0, 1567.0, 1569.0, 1571.0, 1570.0, 1568.0, 1566.0, 1566.0, 1568.0, 1569.0, 1568.0, 1575.0, 1596.0, 1576.0, 1570.0, 1568.0, 1567.0, 1570.0, 1574.0, 1575.0, 1573.0, 1571.0, 1570.0, 1573.0, 1574.0, 1571.0, 1569.0, 1565.0, 1565.0, 1566.0, 1567.0, 1570.0, 1571.0, 1570.0, 1569.0, 1570.0]
    },
    "slices": {}
  }
}