{
  "AcquisitionMatrixPE": 64,
  "AcquisitionNumber": 1,
  "AcquisitionTime": "10:14:31.510000",
  "BandwidthPerPixelPhaseEncode": 30.637,
  "BaseResolution": 64,
  "BidsGuess": [
    "func",
    "_acq-epfid2_dir-AP_run-5_bold"
],
  "CoilCombinationMethod": "Sum of Squares",
  "CoilString": "C:HEA;HEP",
  "ConversionSoftware": "dcm2niix",
  "ConversionSoftwareVersion": "v1.0.20240202",
  "DerivedVendorReportedEchoSpacing": 0.000510004,
  "DeviceSerialNumber": "35119",
  "DwellTime": 3.5e-06,
  "EchoTime": 0.03,
  "EffectiveEchoSpacing": 0.000510004,
  "FlipAngle": 78,
  "HeudiconvVersion": "1.1.6",
  "ImageComments": "V",
  "ImageOrientationPatientDICOM": [0.99996, 0.004146, 0.0079, 0, 0.885469, -0.464699],
  "ImageOrientationText": "Tra>Cor(-27.7)>Sag(0.5)",
  "ImageType": [
    "ORIGINAL",
    "PRIMARY",
    "M",
    "ND",
    "MOSAIC"
],
  "ImagingFrequency": 123.251781,
  "InPlanePhaseEncodingDirectionDICOM": "COL",
  "InstitutionAddress": "Chaucer Road  15,Cambridge,UK,GB,CB2 2EF",
  "InstitutionName": "MRC-CBU",
  "MRAcquisitionType": "2D",
  "MagneticFieldStrength": 3,
  "Manufacturer": "Siemens",
  "ManufacturersModelName": "TrioTim",
  "MatrixCoilMode": "SENSE",
  "Modality": "MR",
  "NonlinearGradientCorrection": false,
  "PartialFourier": 1,
  "PatientPosition": "HFS",
  "PercentPhaseFOV": 100,
  "PercentSampling": 100,
  "PhaseEncodingDirection": "j-",
  "PhaseEncodingSteps": 64,
  "PhaseResolution": 1,
  "PixelBandwidth": 2230,
  "ProcedureStepDescription": "CBU^Neuroimaging",
  "ProtocolName": "CBU_DWEPI_BOLD210",
  "PulseSequenceDetails": "%SiemensSeq%\\ep2d_bold",
  "ReceiveCoilName": "HeadMatrix",
  "ReconMatrixPE": 64,
  "RepetitionTime": 2,
  "SAR": 0.152383,
  "ScanOptions": "FS",
  "ScanningSequence": "EP",
  "SequenceName": "*epfid2d1_64",
  "SequenceVariant": "SK",
  "SeriesDescription": "CBU_DWEPI_BOLD210",
  "SeriesNumber": 5,
  "ShimSetting": [-7804, -8718, -2025, 813, 324, 454, 129, 9],
  "SliceThickness": 3,
  "SliceTiming": [0, 1.0325, 0.06, 1.095, 0.12, 1.155, 0.1825, 1.215, 0.2425, 1.2775, 0.3025, 1.3375, 0.365, 1.3975, 0.425, 1.46, 0.485, 1.52, 0.5475, 1.58, 0.6075, 1.6425, 0.6675, 1.7025, 0.73, 1.7625, 0.79, 1.825, 0.85, 1.885, 0.9125, 1.945, 0.9725],
  "SoftwareVersions": "syngo MR B15",
  "SpacingBetweenSlices": 3.9,
  "StationName": "MRC35119",
  "TaskName": "faceprocessing",
  "TotalReadoutTime": 0.0321303,
  "TxRefAmp": 333.583,
  "dcmmeta_affine": [
    [-2.999880075454712, 0.0, 0.03479520231485367, 100.57645416259766],
    [-0.012438000179827213, 2.656407117843628, -1.8122535943984985, -47.336830139160156],
    [0.02370000071823597, 1.3940969705581665, 3.453191041946411, -82.5189208984375],
    [0.0, 0.0, 0.0, 1.0]
],
  "dcmmeta_reorient_transform": [
    [0.0, -1.0, 0.0, 63.0],
    [1.0, 0.0, 0.0, 0.0],
    [0.0, 0.0, 1.0, 0.0],
    [0.0, 0.0, 0.0, 1.0]
],
  "dcmmeta_shape": [64, 64, 33, 210],
  "dcmmeta_slice_dim": 2,
  "dcmmeta_version": 0.6,
  "global": {
    "const": {
      "AcquisitionMatrix": [64, 0, 0, 64],
      "AngioFlag": "N",
      "BitsAllocated": 16,
      "BitsStored": 12,
      "Columns": 384,
      "EchoNumbers": 1,
      "EchoTime": 30.0,
      "EchoTrainLength": 1,
      "FlipAngle": 78.0,
      "HighBit": 11,
      "ImageOrientationPatient": [0.99996, 0.004146, 0.0079, -0.0, 0.885469, -0.464699],
      "ImagePositionPatient": [-580.557254, -547.032012, 224.572707],
      "ImageType": [
        "ORIGINAL",
        "PRIMARY",
        "M",
        "ND",
        "MOSAIC"
],
      "ImagedNucleus": "1H",
      "ImagingFrequency": 123.251781,
      "InPlanePhaseEncodingDirection": "COL",
      "MRAcquisitionType": "2D",
      "MagneticFieldStrength": 3.0,
      "Manufacturer": "SIEMENS",
      "ManufacturerModelName": "TrioTim",
      "Modality": "MR",
      "NumberOfAverages": 1.0,
      "NumberOfPhaseEncodingSteps": 64,
      "PercentPhaseFieldOfView": 100.0,
      "PercentSampling": 100.0,
      "PerformedProcedureStepStartTime": "094337.531000",
      "PhotometricInterpretation": "MONOCHROME2",
      "PixelAspectRatio": [1, 1],
      "PixelBandwidth": 2230.0,
      "PixelRepresentation": 0,
      "PixelSpacing": [3.0, 3.0],
      "ProtocolName": "CBU_DWEPI_BOLD210",
      "RepetitionTime": 2000.0,
      "Rows": 384,
      "SAR": 0.152383,
      "SamplesPerPixel": 1,
      "ScanOptions": "FS",
      "ScanningSequence": "EP",
      "SequenceName": "*epfid2d1_64",
      "SequenceVariant": "SK",
      "SeriesDescription": "CBU_DWEPI_BOLD210",
      "SeriesNumber": 5,
      "SeriesTime": "101435.250000",
      "SliceLocation": -50.170833,
      "SliceThickness": 3.0,
      "SmallestImagePixelValue": 0,
      "SoftwareVersions": "syngo MR B15",
      "SpacingBetweenSlices": 3.9,
      "SpecificCharacterSet": "ISO_IR 100",
      "StudyID": "1",
      "StudyTime": "094337.468000",
      "TransmitCoilName": "Body",
      "VariableFlipAngleFlag": "N",
      "WindowCenterWidthExplanation": "Algo1",
      "dBdt": 0.0},
    "slices": {}
  },
  "time": {
    "samples": {
      "AcquisitionNumber": [1, 2, 3, 4, 5, 6, 7, 8, 9, 10, 11, 12, 13, 14, 15, 16, 17, 18, 19, 20, 21, 22, 23, 24, 25, 26, 27, 28, 29, 30, 31, 32, 33, 34, 35, 36, 37, 38, 39, 40, 41, 42, 43, 44, 45, 46, 47, 48, 49, 50, 51, 52, 53, 54, 55, 56, 57, 58, 59, 60, 61, 62, 63, 64, 65, 66, 67, 68, 69, 70, 71, 72, 73, 74, 75, 76, 77, 78, 79, 80, 81, 82, 83, 84, 85, 86, 87, 88, 89, 90, 91, 92, 93, 94, 95, 96, 97, 98, 99, 100, 101, 102, 103, 104, 105, 106, 107, 108, 109, 110, 111, 112, 113, 114, 115, 116, 117, 118, 119, 120, 121, 122, 123, 124, 125, 126, 127, 128, 129, 130, 131, 132, 133, 134, 135, 136, 137, 138, 139, 140, 141, 142, 143, 144, 145, 146, 147, 148, 149, 150, 151, 152, 153, 154, 155, 156, 157, 158, 159, 160, 161, 162, 163, 164, 165, 166, 167, 168, 169, 170, 171, 172, 173, 174, 175, 176, 177, 178, 179, 180, 181, 182, 183, 184, 185, 186, 187, 188, 189, 190, 191, 192, 193, 194, 195, 196, 197, 198, 199, 200, 201, 202, 203, 204, 205, 206, 207, 208, 209, 210],
      "AcquisitionTime": ["101431.510000", "101433.517500", "101435.525000", "101437.532500", "101439.540000", "101441.550000", "101443.557500", "101445.565000", "101447.572500", "101449.582500", "101451.590000", "101453.597500", "101455.605000", "101457.612500", "101459.622500", "101501.630000", "101503.637500", "101505.645000", "101507.652500", "101509.662500", "101511.670000", "101513.677500", "101515.685000", "101517.695000", "101519.702500", "101521.710000", "101523.717500", "101525.725000", "101527.735000", "101529.742500", "101531.750000", "101533.757500", "101535.765000", "101537.775000", "101539.782500", "101541.790000", "101543.797500", "101545.807500", "101547.815000", "101549.822500", "101551.830000", "101553.837500", "101555.847500", "101557.855000", "101559.862500", "101601.870000", "101603.877500", "101605.887500", "101607.895000", "101609.902500", "101611.910000", "101613.917500", "101615.927500", "101617.935000", "101619.942500", "101621.950000", "101623.960000", "101625.967500", "101627.975000", "101629.982500", "101631.990000", "101634.000000", "101636.007500", "101638.015000", "101640.022500", "101642.030000", "101644.040000", "101646.047500", "101648.055000", "101650.062500", "101652.072500", "101654.080000", "101656.087500", "101658.095000", "101700.102500", "101702.112500", "101704.120000", "101706.127500", "101708.135000", "101710.142500", "101712.152500", "101714.160000", "101716.167500", "101718.175000", "101720.185000", "101722.192500", "101724.200000", "101726.207500", "101728.215000", "101730.225000", "101732.232500", "101734.240000", "101736.247500", "101738.255000", "101740.265000", "101742.272500", "101744.280000", "101746.287500", "101748.297500", "101750.305000", "101752.312500", "101754.320000", "101756.327500", "101758.337500", "101800.345000", "101802.352500", "101804.360000", "101806.367500", "101808.377500", "101810.385000", "101812.392500", "101814.400000", "101816.407500", "101818.417500", "101820.425000", "101822.432500", "101824.440000", "101826.450000", "101828.457500", "101830.465000", "101832.472500", "101834.480000", "101836.490000", "101838.497500", "101840.505000", "101842.512500", "101844.520000", "101846.530000", "101848.537500", "101850.545000", "101852.552500", "101854.562500", "101856.570000", "101858.577500", "101900.585000", "101902.592500", "101904.602500", "101906.610000", "101908.617500", "101910.625000", "101912.632500", "101914.642500", "101916.650000", "101918.657500", "101920.665000", "101922.675000", "101924.682500", "101926.690000", "101928.697500", "101930.705000", "101932.715000", "101934.722500", "101936.730000", "101938.737500", "101940.745000", "101942.755000", "101944.762500", "101946.770000", "101948.777500", "101950.785000", "101952.795000", "101954.802500", "101956.810000", "101958.817500", "102000.827500", "102002.835000", "102004.842500", "102006.850000", "102008.857500", "102010.867500", "102012.875000", "102014.882500", "102016.890000", "102018.897500", "102020.907500", "102022.915000", "102024.922500", "102026.930000", "102028.940000", "102030.947500", "102032.955000", "102034.962500", "102036.970000", "102038.980000", "102040.987500", "102042.995000", "102045.002500", "102047.010000", "102049.020000", "102051.027500", "102053.035000", "102055.042500", "102057.052500", "102059.060000", "102101.067500", "102103.075000", "102105.082500", "102107.092500", "102109.100000", "102111.107500", "102113.115000", "102115.122500", "102117.132500", "102119.140000", "102121.147500", "102123.155000", "102125.162500", "102127.172500", "102129.180000", "102131.187500"],
      "ContentTime": ["101435.265000", "101437.250000", "101439.250000", "101441.250000", "101443.250000", "101445.250000", "101447.250000", "101449.250000", "101451.250000", "101453.250000", "101455.250000", "101457.250000", "101459.250000", "101501.250000", "101503.250000", "101505.250000", "101507.750000", "101509.250000", "101511.250000", "101513.250000", "101515.250000", "101517.250000", "101519.250000", "101521.250000", "101523.250000", "101525.250000", "101527.250000", "101529.250000", "101531.250000", "101533.250000", "101535.250000", "101537.250000", "101539.250000", "101541.250000", "101543.250000", "101545.250000", "101547.250000", "101549.250000", "101551.250000", "101553.250000", "101555.250000", "101557.250000", "101559.250000", "101601.250000", "101603.250000", "101605.250000", "101607.250000", "101609.250000", "101611.250000", "101613.250000", "101615.250000", "101617.250000", "101619.250000", "101621.250000", "101623.750000", "101625.250000", "101627.250000", "101629.250000", "101631.250000", "101633.250000", "101635.250000", "101637.250000", "101639.250000", "101641.250000", "101643.250000", "101645.250000", "101647.250000", "101649.250000", "101651.250000", "101653.250000", "101655.250000", "101657.250000", "101659.250000", "101701.250000", "101703.250000", "101705.250000", "101707.250000", "101709.250000", "101711.250000", "101713.250000", "101715.250000", "101717.250000", "101719.250000", "101721.250000", "101723.250000", "101725.250000", "101727.250000", "101729.250000", "101731.250000", "101733.250000", "101735.250000", "101737.250000", "101739.250000", "101741.250000", "101743.250000", "101745.250000", "101747.250000", "101749.250000", "101751.250000", "101753.250000", "101755.250000", "101757.250000", "101759.250000", "101801.250000", "101803.250000", "101805.250000", "101807.250000", "101809.250000", "101811.250000", "101813.250000", "101815.250000", "101817.250000", "101819.250000", "101821.250000", "101823.250000", "101825.250000", "101827.250000", "101829.250000", "101831.250000", "101833.250000", "101835.250000", "101837.250000", "101839.250000", "101841.250000", "101843.250000", "101845.250000", "101847.250000", "101849.250000", "101851.250000", "101853.250000", "101855.250000", "101857.250000", "101859.250000", "101901.250000", "101903.250000", "101905.250000", "101907.250000", "101909.250000", "101911.250000", "101913.250000", "101915.250000", "101917.250000", "101919.250000", "101921.250000", "101923.250000", "101925.250000", "101927.750000", "101929.250000", "101931.250000", "101933.750000", "101935.250000", "101937.250000", "101939.250000", "101941.250000", "101943.250000", "101945.250000", "101947.250000", "101949.250000", "101951.250000", "101953.250000", "101955.250000", "101957.250000", "101959.250000", "102001.250000", "102003.250000", "102005.250000", "102007.250000", "102009.250000", "102011.250000", "102013.250000", "102015.250000", "102017.250000", "102019.750000", "102021.250000", "102023.250000", "102025.250000", "102027.250000", "102029.250000", "102031.750000", "102033.250000", "102035.250000", "102037.250000", "102039.250000", "102041.250000", "102043.250000", "102045.250000", "102047.250000", "102049.250000", "102051.250000", "102053.250000", "102055.250000", "102057.250000", "102059.250000", "102101.250000", "102103.250000", "102105.250000", "102107.250000", "102109.250000", "102111.250000", "102113.250000", "102115.250000", "102117.250000", "102119.250000", "102121.250000", "102123.250000", "102125.250000", "102127.250000", "102129.250000", "102131.250000", "102133.171000"],
      "InstanceCreationTime": ["101435.265000", "101437.250000", "101439.250000", "101441.250000", "101443.250000", "101445.250000", "101447.250000", "101449.250000", "101451.250000", "101453.250000", "101455.250000", "101457.250000", "101459.250000", "101501.250000", "101503.250000", "101505.250000", "101507.750000", "101509.250000", "101511.250000", "101513.250000", "101515.250000", "101517.250000", "101519.250000", "101521.250000", "101523.250000", "101525.250000", "101527.250000", "101529.250000", "101531.250000", "101533.250000", "101535.250000", "101537.250000", "101539.250000", "101541.250000", "101543.250000", "101545.250000", "101547.250000", "101549.250000", "101551.250000", "101553.250000", "101555.250000", "101557.250000", "101559.250000", "101601.250000", "101603.250000", "101605.250000", "101607.250000", "101609.250000", "101611.250000", "101613.250000", "101615.250000", "101617.250000", "101619.250000", "101621.250000", "101623.750000", "101625.250000", "101627.250000", "101629.250000", "101631.250000", "101633.250000", "101635.250000", "101637.250000", "101639.250000", "101641.250000", "101643.250000", "101645.250000", "101647.250000", "101649.250000", "101651.250000", "101653.250000", "101655.250000", "101657.250000", "101659.250000", "101701.250000", "101703.250000", "101705.250000", "101707.250000", "101709.250000", "101711.250000", "101713.250000", "101715.250000", "101717.250000", "101719.250000", "101721.250000", "101723.250000", "101725.250000", "101727.250000", "101729.250000", "101731.250000", "101733.250000", "101735.250000", "101737.250000", "101739.250000", "101741.250000", "101743.250000", "101745.250000", "101747.250000", "101749.250000", "101751.250000", "101753.250000", "101755.250000", "101757.250000", "101759.250000", "101801.250000", "101803.250000", "101805.250000", "101807.250000", "101809.250000", "101811.250000", "101813.250000", "101815.250000", "101817.250000", "101819.250000", "101821.250000", "101823.250000", "101825.250000", "101827.250000", "101829.250000", "101831.250000", "101833.250000", "101835.250000", "101837.250000", "101839.250000", "101841.250000", "101843.250000", "101845.250000", "101847.250000", "101849.250000", "101851.250000", "101853.250000", "101855.250000", "101857.250000", "101859.250000", "101901.250000", "101903.250000", "101905.250000", "101907.250000", "101909.250000", "101911.250000", "101913.250000", "101915.250000", "101917.250000", "101919.250000", "101921.250000", "101923.250000", "101925.250000", "101927.750000", "101929.250000", "101931.250000", "101933.750000", "101935.250000", "101937.250000", "101939.250000", "101941.250000", "101943.250000", "101945.250000", "101947.250000", "101949.250000", "101951.250000", "101953.250000", "101955.250000", "101957.250000", "101959.250000", "102001.250000", "102003.250000", "102005.250000", "102007.250000", "102009.250000", "102011.250000", "102013.250000", "102015.250000", "102017.250000", "102019.750000", "102021.250000", "102023.250000", "102025.250000", "102027.250000", "102029.250000", "102031.750000", "102033.250000", "102035.250000", "102037.250000", "102039.250000", "102041.250000", "102043.250000", "102045.250000", "102047.250000", "102049.250000", "102051.250000", "102053.250000", "102055.250000", "102057.250000", "102059.250000", "102101.250000", "102103.250000", "102105.250000", "102107.250000", "102109.250000", "102111.250000", "102113.250000", "102115.250000", "102117.250000", "102119.250000", "102121.250000", "102123.250000", "102125.250000", "102127.250000", "102129.250000", "102131.250000", "102133.171000"],
      "InstanceNumber": [1, 2, 3, 4, 5, 6, 7, 8, 9, 10, 11, 12, 13, 14, 15, 16, 17, 18, 19, 20, 21, 22, 23, 24, 25, 26, 27, 28, 29, 30, 31, 32, 33, 34, 35, 36, 37, 38, 39, 40, 41, 42, 43, 44, 45, 46, 47, 48, 49, 50, 51, 52, 53, 54, 55, 56, 57, 58, 59, 60, 61, 62, 63, 64, 65, 66, 67, 68, 69, 70, 71, 72, 73, 74, 75, 76, 77, 78, 79, 80, 81, 82, 83, 84, 85, 86, 87, 88, 89, 90, 91, 92, 93, 94, 95, 96, 97, 98, 99, 100, 101, 102, 103, 104, 105, 106, 107, 108, 109, 110, 111, 112, 113, 114, 115, 116, 117, 118, 119, 120, 121, 122, 123, 124, 125, 126, 127, 128, 129, 130, 131, 132, 133, 134, 135, 136, 137, 138, 139, 140, 141, 142, 143, 144, 145, 146, 147, 148, 149, 150, 151, 152, 153, 154, 155, 156, 157, 158, 159, 160, 161, 162, 163, 164, 165, 166, 167, 168, 169, 170, 171, 172, 173, 174, 175, 176, 177, 178, 179, 180, 181, 182, 183, 184, 185, 186, 187, 188, 189, 190, 191, 192, 193, 194, 195, 196, 197, 198, 199, 200, 201, 202, 203, 204, 205, 206, 207, 208, 209, 210],
      "LargestImagePixelValue": [1908, 1836, 1780, 1803, 1770, 1767, 1782, 1793, 1790, 1771, 1757, 1791, 1795, 1785, 1785, 1786, 1773, 1779, 1787, 1769, 1762, 1791, 1777, 1770, 1770, 1770, 1772, 1762, 1757, 1775, 1786, 1762, 1775, 1761, 1774, 1780, 1777, 1774, 1784, 1780, 1763, 1770, 1795, 1789, 1792, 1758, 1786, 1783, 1791, 1784, 1782, 1798, 1791, 1773, 1779, 1773, 1768, 1709, 1691, 1702, 1699, 1707, 1705, 1730, 1707, 1706, 1715, 1721, 1717, 1719, 1706, 1729, 1746, 1707, 1704, 1732, 1735, 1710, 1721, 1728, 1727, 1714, 1711, 1711, 1709, 1802, 1710, 1734, 1732, 1713, 1741, 1717, 1708, 1718, 1737, 1713, 1721, 1723, 1724, 1715, 1742, 1705, 1708, 1721, 1716, 1707, 1717, 1707, 1716, 2000, 1720, 1719, 1703, 1715, 1713, 1700, 1720, 1725, 1776, 1731, 1747, 1727, 1722, 1739, 1717, 1729, 1734, 1720, 1714, 1730, 1709, 1735, 1754, 1711, 1720, 1720, 1711, 1715, 1709, 1737, 1707, 1722, 1705, 1721, 1767, 1737, 1698, 1726, 1727, 1717, 1701, 1709, 1723, 1715, 1735, 1708, 1707, 1739, 1711, 1716, 1739, 1708, 1720, 1763, 1752, 1738, 1743, 1744, 1749, 1745, 1742, 1762, 1736, 1744, 1759, 1738, 1739, 1760, 1772, 1745, 1743, 1751, 1759, 1747, 1762, 1749, 1761, 1762, 1766, 1763, 1745, 1752, 1761, 1750, 1758, 1730, 1758, 1761, 1756, 1747, 1754, 1761, 1753, 1734, 1759, 1751, 1730, 1733, 1770, 1735],
      "WindowCenter": [757.0, 753.0, 751.0, 750.0, 750.0, 751.0, 752.0, 752.0, 751.0, 750.0, 750.0, 751.0, 752.0, 751.0, 750.0, 750.0, 750.0, 751.0, 751.0, 751.0, 750.0, 750.0, 751.0, 751.0, 750.0, 749.0, 749.0, 749.0, 750.0, 751.0, 751.0, 751.0, 751.0, 751.0, 752.0, 752.0, 752.0, 752.0, 751.0, 751.0, 751.0, 752.0, 752.0, 750.0, 750.0, 749.0, 749.0, 750.0, 751.0, 750.0, 750.0, 750.0, 751.0, 752.0, 752.0, 752.0, 754.0, 754.0, 754.0, 752.0, 752.0, 750.0, 750.0, 751.0, 752.0, 753.0, 753.0, 753.0, 752.0, 752.0, 753.0, 752.0, 751.0, 752.0, 752.0, 752.0, 752.0, 752.0, 752.0, 752.0, 752.0, 752.0, 753.0, 752.0, 752.0, 751.0, 750.0, 752.0, 752.0, 750.0, 750.0, 750.0, 751.0, 751.0, 751.0, 751.0, 751.0, 752.0, 751.0, 751.0, 751.0, 752.0, 752.0, 752.0, 751.0, 752.0, 752.0, 752.0, 752.0, 753.0, 752.0, 753.0, 752.0, 752.0, 752.0, 752.0, 753.0, 753.0, 753.0, 752.0, 751.0, 753.0, 753.0, 753.0, 752.0, 752.0, 751.0, 752.0, 753.0, 753.0, 753.0, 752.0, 752.0, 752.0, 752.0, 751.0, 751.0, 752.0, 752.0, 752.0, 753.0, 753.0, 753.0, 755.0, 755.0, 755.0, 752.0, 752.0, 752.0, 753.0, 754.0, 754.0, 754.0, 754.0, 754.0, 754.0, 753.0, 753.0, 752.0, 752.0, 752.0, 752.0, 752.0, 752.0, 752.0, 752.0, 753.0, 753.0, 753.0, 752.0, 753.0, 754.0, 754.0, 754.0, 752.0, 752.0, 753.0, 754.0, 754.0, 753.0, 752.0, 752.0, 753.0, 753.0, 753.0, 752.0, 752.0, 751.0, 752.0, 753.0, 755.0, 756.0, 755.0, 754.0, 753.0, 753.0, 754.0, 754.0, 754.0, 754.0, 754.0, 754.0, 755.0, 754.0, 753.0, 753.0, 754.0, 756.0, 757.0, 756.0],
      "WindowWidth": [1591.0, 1579.0, 1572.0, 1571.0, 1571.0, 1572.0, 1575.0, 1575.0, 1573.0, 1572.0, 1572.0, 1574.0, 1576.0, 1574.0, 1571.0, 1571.0, 1571.0, 1573.0, 1573.0, 1572.0, 1571.0, 1572.0, 1572.0, 1573.0, 1570.0, 1568.0, 1568.0, 1568.0, 1570.0, 1572.0, 1572.0, 1572.0, 1572.0, 1572.0, 1574.0, 1576.0, 1576.0, 1575.0, 1573.0, 1572.0, 1573.0, 1575.0, 1575.0, 1572.0, 1570.0, 1569.0, 1570.0, 1572.0, 1573.0, 1571.0, 1571.0, 1571.0, 1573.0, 1575.0, 1575.0, 1574.0, 1581.0, 1580.0, 1579.0, 1575.0, 1574.0, 1572.0, 1571.0, 1572.0, 1575.0, 1577.0, 1577.0, 1577.0, 1575.0, 1576.0, 1577.0, 1576.0, 1574.0, 1574.0, 1577.0, 1576.0, 1575.0, 1574.0, 1575.0, 1575.0, 1575.0, 1575.0, 1577.0, 1576.0, 1574.0, 1574.0, 1572.0, 1575.0, 1575.0, 1572.0, 1570.0, 1571.0, 1572.0, 1574.0, 1574.0, 1574.0, 1574.0, 1575.0, 1573.0, 1573.0, 1574.0, 1575.0, 1575.0, 1576.0, 1574.0, 1575.0, 1575.0, 1575.0, 1575.0, 1579.0, 1576.0, 1578.0, 1576.0, 1576.0, 1575.0, 1576.0, 1577.0, 1577.0, 1577.0, 1574.0, 1574.0, 1577.0, 1578.0, 1578.0, 1576.0, 1575.0, 1574.0, 1577.0, 1578.0, 1578.0, 1577.0, 1576.0, 1576.0, 1575.0, 1575.0, 1574.0, 1574.0, 1575.0, 1576.0, 1576.0, 1577.0, 1578.0, 1578.0, 1581.0, 1582.0, 1583.0, 1575.0, 1575.0, 1575.0, 1578.0, 1581.0, 1580.0, 1579.0, 1580.0, 1581.0, 1580.0, 1578.0, 1577.0, 1575.0, 1575.0, 1576.0, 1576.0, 1576.0, 1576.0, 1575.0, 1575.0, 1577.0, 1578.0, 1578.0, 1576.0, 1577.0, 1580.0, 1580.0, 1579.0, 1576.0, 1576.0, 1577.0, 1580.0, 1581.0, 1578.0, 1576.0, 1577.0, 1578.0, 1579.0, 1578.0, 1577.0, 1575.0, 1574.0, 1576.0, 1579.0, 1582.0, 1584.0, 1582.0, 1580.0, 1579.0, 1578.0, 1579.0, 1579.0, 1580.0, 1580.0, 1580.0, 1581.0, 1582.0, 1581.0, 1579.0, 1577.0, 1579.0, 1584.0, 1588.0, 1585.0]
    },
    "slices": {}
  }
}