{
  "AcquisitionMatrixPE": 64,
  "AcquisitionNumber": 1,
  "AcquisitionTime": "10:21:59.875000",
  "BandwidthPerPixelPhaseEncode": 30.637,
  "BaseResolution": 64,
  "BidsGuess": [
    "func",
    "_acq-epfid2_dir-AP_run-6_bold"
],
  "CoilCombinationMethod": "Sum of Squares",
  "CoilString": "C:HEA;HEP",
  "ConversionSoftware": "dcm2niix",
  "ConversionSoftwareVersion": "v1.0.20240202",
  "DerivedVendorReportedEchoSpacing": 0.000510004,
  "DeviceSerialNumber": "35119",
  "DwellTime": 3.5e-06,
  "EchoTime": 0.03,
  "EffectiveEchoSpacing": 0.000510004,
  "FlipAngle": 78,
  "HeudiconvVersion": "1.1.6",
  "ImageComments": "V",
  "ImageOrientationPatientDICOM": [0.99996, 0.004146, 0.0079, 0, 0.885469, -0.464699],
  "ImageOrientationText": "Tra>Cor(-27.7)>Sag(0.5)",
  "ImageType": [
    "ORIGINAL",
    "PRIMARY",
    "M",
    "ND",
    "MOSAIC"
],
  "ImagingFrequency": 123.251781,
  "InPlanePhaseEncodingDirectionDICOM": "COL",
  "InstitutionAddress": "Chaucer Road  15,Cambridge,UK,GB,CB2 2EF",
  "InstitutionName": "MRC-CBU",
  "MRAcquisitionType": "2D",
  "MagneticFieldStrength": 3,
  "Manufacturer": "Siemens",
  "ManufacturersModelName": "TrioTim",
  "MatrixCoilMode": "SENSE",
  "Modality": "MR",
  "NonlinearGradientCorrection": false,
  "PartialFourier": 1,
  "PatientPosition": "HFS",
  "PercentPhaseFOV": 100,
  "PercentSampling": 100,
  "PhaseEncodingDirection": "j-",
  "PhaseEncodingSteps": 64,
  "PhaseResolution": 1,
  "PixelBandwidth": 2230,
  "ProcedureStepDescription": "CBU^Neuroimaging",
  "ProtocolName": "CBU_DWEPI_BOLD210",
  "PulseSequenceDetails": "%SiemensSeq%\\ep2d_bold",
  "ReceiveCoilName": "HeadMatrix",
  "ReconMatrixPE": 64,
  "RepetitionTime": 2,
  "SAR": 0.152383,
  "ScanOptions": "FS",
  "ScanningSequence": "EP",
  "SequenceName": "*epfid2d1_64",
  "SequenceVariant": "SK",
  "SeriesDescription": "CBU_DWEPI_BOLD210",
  "SeriesNumber": 6,
  "ShimSetting": [-7804, -8718, -2025, 813, 324, 454, 129, 9],
  "SliceThickness": 3,
  "SliceTiming": [0, 1.035, 0.06, 1.095, 0.1225, 1.155, 0.1825, 1.2175, 0.2425, 1.2775, 0.305, 1.3375, 0.365, 1.4, 0.425, 1.46, 0.4875, 1.52, 0.5475, 1.5825, 0.6075, 1.6425, 0.67, 1.7025, 0.73, 1.765, 0.79, 1.825, 0.8525, 1.885, 0.9125, 1.9475, 0.9725],
  "SoftwareVersions": "syngo MR B15",
  "SpacingBetweenSlices": 3.9,
  "StationName": "MRC35119",
  "TaskName": "faceprocessing",
  "TotalReadoutTime": 0.0321303,
  "TxRefAmp": 333.583,
  "dcmmeta_affine": [
    [-2.999880075454712, 0.0, 0.03479520231485367, 100.57645416259766],
    [-0.012438000179827213, 2.656407117843628, -1.8122535943984985, -47.336830139160156],
    [0.02370000071823597, 1.3940969705581665, 3.453191041946411, -82.5189208984375],
    [0.0, 0.0, 0.0, 1.0]
],
  "dcmmeta_reorient_transform": [
    [0.0, -1.0, 0.0, 63.0],
    [1.0, 0.0, 0.0, 0.0],
    [0.0, 0.0, 1.0, 0.0],
    [0.0, 0.0, 0.0, 1.0]
],
  "dcmmeta_shape": [64, 64, 33, 210],
  "dcmmeta_slice_dim": 2,
  "dcmmeta_version": 0.6,
  "global": {
    "const": {
      "AcquisitionMatrix": [64, 0, 0, 64],
      "AngioFlag": "N",
      "BitsAllocated": 16,
      "BitsStored": 12,
      "Columns": 384,
      "EchoNumbers": 1,
      "EchoTime": 30.0,
      "EchoTrainLength": 1,
      "FlipAngle": 78.0,
      "HighBit": 11,
      "ImageOrientationPatient": [0.99996, 0.004146, 0.0079, -0.0, 0.885469, -0.464699],
      "ImagePositionPatient": [-580.557254, -547.032012, 224.572707],
      "ImageType": [
        "ORIGINAL",
        "PRIMARY",
        "M",
        "ND",
        "MOSAIC"
],
      "ImagedNucleus": "1H",
      "ImagingFrequency": 123.251781,
      "InPlanePhaseEncodingDirection": "COL",
      "MRAcquisitionType": "2D",
      "MagneticFieldStrength": 3.0,
      "Manufacturer": "SIEMENS",
      "ManufacturerModelName": "TrioTim",
      "Modality": "MR",
      "NumberOfAverages": 1.0,
      "NumberOfPhaseEncodingSteps": 64,
      "PercentPhaseFieldOfView": 100.0,
      "PercentSampling": 100.0,
      "PerformedProcedureStepStartTime": "094337.531000",
      "PhotometricInterpretation": "MONOCHROME2",
      "PixelAspectRatio": [1, 1],
      "PixelBandwidth": 2230.0,
      "PixelRepresentation": 0,
      "PixelSpacing": [3.0, 3.0],
      "ProtocolName": "CBU_DWEPI_BOLD210",
      "RepetitionTime": 2000.0,
      "Rows": 384,
      "SAR": 0.152383,
      "SamplesPerPixel": 1,
      "ScanOptions": "FS",
      "ScanningSequence": "EP",
      "SequenceName": "*epfid2d1_64",
      "SequenceVariant": "SK",
      "SeriesDescription": "CBU_DWEPI_BOLD210",
      "SeriesNumber": 6,
      "SeriesTime": "102203.843000",
      "SliceLocation": -50.170833,
      "SliceThickness": 3.0,
      "SmallestImagePixelValue": 0,
      "SoftwareVersions": "syngo MR B15",
      "SpacingBetweenSlices": 3.9,
      "SpecificCharacterSet": "ISO_IR 100",
      "StudyID": "1",
      "StudyTime": "094337.468000",
      "TransmitCoilName": "Body",
      "VariableFlipAngleFlag": "N",
      "WindowCenterWidthExplanation": "Algo1",
      "dBdt": 0.0},
    "slices": {}
  },
  "time": {
    "samples": {
      "AcquisitionNumber": [1, 2, 3, 4, 5, 6, 7, 8, 9, 10, 11, 12, 13, 14, 15, 16, 17, 18, 19, 20, 21, 22, 23, 24, 25, 26, 27, 28, 29, 30, 31, 32, 33, 34, 35, 36, 37, 38, 39, 40, 41, 42, 43, 44, 45, 46, 47, 48, 49, 50, 51, 52, 53, 54, 55, 56, 57, 58, 59, 60, 61, 62, 63, 64, 65, 66, 67, 68, 69, 70, 71, 72, 73, 74, 75, 76, 77, 78, 79, 80, 81, 82, 83, 84, 85, 86, 87, 88, 89, 90, 91, 92, 93, 94, 95, 96, 97, 98, 99, 100, 101, 102, 103, 104, 105, 106, 107, 108, 109, 110, 111, 112, 113, 114, 115, 116, 117, 118, 119, 120, 121, 122, 123, 124, 125, 126, 127, 128, 129, 130, 131, 132, 133, 134, 135, 136, 137, 138, 139, 140, 141, 142, 143, 144, 145, 146, 147, 148, 149, 150, 151, 152, 153, 154, 155, 156, 157, 158, 159, 160, 161, 162, 163, 164, 165, 166, 167, 168, 169, 170, 171, 172, 173, 174, 175, 176, 177, 178, 179, 180, 181, 182, 183, 184, 185, 186, 187, 188, 189, 190, 191, 192, 193, 194, 195, 196, 197, 198, 199, 200, 201, 202, 203, 204, 205, 206, 207, 208, 209, 210],
      "AcquisitionTime": ["102159.875000", "102201.882500", "102203.890000", "102205.900000", "102207.907500", "102209.915000", "102211.922500", "102213.932500", "102215.940000", "102217.947500", "102219.955000", "102221.962500", "102223.972500", "102225.980000", "102227.987500", "102229.995000", "102232.002500", "102234.012500", "102236.020000", "102238.027500", "102240.035000", "102242.045000", "102244.052500", "102246.060000", "102248.067500", "102250.075000", "102252.085000", "102254.092500", "102256.100000", "102258.107500", "102300.115000", "102302.125000", "102304.132500", "102306.140000", "102308.147500", "102310.155000", "102312.165000", "102314.172500", "102316.180000", "102318.187500", "102320.197500", "102322.205000", "102324.212500", "102326.220000", "102328.227500", "102330.237500", "102332.245000", "102334.252500", "102336.260000", "102338.267500", "102340.277500", "102342.285000", "102344.292500", "102346.300000", "102348.310000", "102350.317500", "102352.325000", "102354.332500", "102356.340000", "102358.350000", "102400.357500", "102402.365000", "102404.372500", "102406.380000", "102408.390000", "102410.397500", "102412.405000", "102414.412500", "102416.422500", "102418.430000", "102420.437500", "102422.445000", "102424.452500", "102426.462500", "102428.470000", "102430.477500", "102432.485000", "102434.492500", "102436.502500", "102438.510000", "102440.517500", "102442.525000", "102444.532500", "102446.542500", "102448.550000", "102450.557500", "102452.565000", "102454.575000", "102456.582500", "102458.590000", "102500.597500", "102502.605000", "102504.615000", "102506.622500", "102508.630000", "102510.637500", "102512.645000", "102514.655000", "102516.662500", "102518.670000", "102520.677500", "102522.687500", "102524.695000", "102526.702500", "102528.710000", "102530.717500", "102532.727500", "102534.735000", "102536.742500", "102538.750000", "102540.757500", "102542.767500", "102544.775000", "102546.782500", "102548.790000", "102550.800000", "102552.807500", "102554.815000", "102556.822500", "102558.830000", "102600.840000", "102602.847500", "102604.855000", "102606.862500", "102608.870000", "102610.880000", "102612.887500", "102614.895000", "102616.902500", "102618.912500", "102620.920000", "102622.927500", "102624.935000", "102626.942500", "102628.952500", "102630.960000", "102632.967500", "102634.975000", "102636.982500", "102638.992500", "102641.000000", "102643.007500", "102645.015000", "102647.022500", "102649.032500", "102651.040000", "102653.047500", "102655.055000", "102657.065000", "102659.072500", "102701.080000", "102703.087500", "102705.095000", "102707.105000", "102709.112500", "102711.120000", "102713.127500", "102715.135000", "102717.145000", "102719.152500", "102721.160000", "102723.167500", "102725.177500", "102727.185000", "102729.192500", "102731.200000", "102733.207500", "102735.217500", "102737.225000", "102739.232500", "102741.240000", "102743.247500", "102745.257500", "102747.265000", "102749.272500", "102751.280000", "102753.290000", "102755.297500", "102757.305000", "102759.312500", "102801.320000", "102803.330000", "102805.337500", "102807.345000", "102809.352500", "102811.360000", "102813.370000", "102815.377500", "102817.385000", "102819.392500", "102821.400000", "102823.410000", "102825.417500", "102827.425000", "102829.432500", "102831.442500", "102833.450000", "102835.457500", "102837.465000", "102839.472500", "102841.482500", "102843.490000", "102845.497500", "102847.505000", "102849.512500", "102851.522500", "102853.530000", "102855.537500", "102857.545000", "102859.555000"],
      "ContentTime": ["102203.843000", "102205.843000", "102207.843000", "102209.843000", "102211.843000", "102213.843000", "102215.843000", "102217.843000", "102219.843000", "102221.843000", "102223.843000", "102225.843000", "102227.843000", "102229.843000", "102231.843000", "102233.843000", "102235.843000", "102237.843000", "102239.843000", "102241.843000", "102243.843000", "102245.843000", "102247.843000", "102249.843000", "102251.843000", "102253.843000", "102255.843000", "102257.843000", "102259.843000", "102301.843000", "102303.843000", "102305.843000", "102307.843000", "102309.843000", "102311.843000", "102313.843000", "102315.843000", "102317.843000", "102319.843000", "102321.843000", "102323.843000", "102325.843000", "102327.843000", "102329.843000", "102331.843000", "102333.843000", "102335.843000", "102337.843000", "102339.843000", "102341.843000", "102343.843000", "102345.843000", "102347.843000", "102349.843000", "102351.843000", "102353.843000", "102355.843000", "102357.843000", "102359.843000", "102401.843000", "102403.843000", "102405.843000", "102407.843000", "102409.843000", "102411.843000", "102413.843000", "102415.843000", "102417.843000", "102419.843000", "102421.843000", "102423.843000", "102425.843000", "102427.843000", "102429.843000", "102431.843000", "102433.843000", "102435.843000", "102437.843000", "102439.843000", "102441.843000", "102443.843000", "102445.843000", "102447.843000", "102449.843000", "102451.843000", "102453.843000", "102455.843000", "102457.843000", "102459.843000", "102501.843000", "102503.843000", "102505.843000", "102507.843000", "102509.843000", "102511.843000", "102513.843000", "102515.843000", "102517.843000", "102519.843000", "102521.843000", "102523.843000", "102525.843000", "102527.843000", "102529.843000", "102531.843000", "102533.843000", "102535.843000", "102537.843000", "102539.843000", "102541.843000", "102543.843000", "102545.843000", "102547.843000", "102549.843000", "102551.843000", "102553.843000", "102555.843000", "102557.843000", "102559.843000", "102601.843000", "102603.843000", "102605.843000", "102607.843000", "102609.843000", "102611.843000", "102613.843000", "102615.843000", "102617.843000", "102619.843000", "102621.843000", "102623.843000", "102625.843000", "102627.843000", "102629.843000", "102631.843000", "102633.843000", "102635.843000", "102637.843000", "102639.843000", "102641.843000", "102643.843000", "102645.843000", "102647.843000", "102649.843000", "102651.843000", "102653.843000", "102655.843000", "102657.843000", "102659.843000", "102701.843000", "102703.843000", "102705.843000", "102707.843000", "102709.843000", "102711.843000", "102713.843000", "102715.843000", "102717.843000", "102719.843000", "102721.843000", "102723.843000", "102725.843000", "102727.828000", "102729.828000", "102731.828000", "102733.828000", "102735.828000", "102737.828000", "102739.828000", "102741.828000", "102743.828000", "102745.828000", "102747.828000", "102749.828000", "102751.828000", "102753.828000", "102755.843000", "102757.828000", "102759.828000", "102801.828000", "102803.828000", "102805.828000", "102807.828000", "102809.828000", "102811.828000", "102813.828000", "102815.828000", "102817.828000", "102819.828000", "102821.828000", "102823.828000", "102825.828000", "102827.828000", "102829.828000", "102831.828000", "102833.828000", "102835.828000", "102837.828000", "102839.828000", "102841.828000", "102843.828000", "102845.828000", "102847.828000", "102849.828000", "102851.828000", "102853.828000", "102855.828000", "102857.828000", "102859.828000", "102901.546000"],
      "InstanceCreationTime": ["102203.843000", "102205.843000", "102207.843000", "102209.843000", "102211.843000", "102213.843000", "102215.843000", "102217.843000", "102219.843000", "102221.843000", "102223.843000", "102225.843000", "102227.843000", "102229.843000", "102231.843000", "102233.843000", "102235.843000", "102237.843000", "102239.843000", "102241.843000", "102243.843000", "102245.843000", "102247.843000", "102249.843000", "102251.843000", "102253.843000", "102255.843000", "102257.843000", "102259.843000", "102301.843000", "102303.843000", "102305.843000", "102307.843000", "102309.843000", "102311.843000", "102313.843000", "102315.843000", "102317.843000", "102319.843000", "102321.843000", "102323.843000", "102325.843000", "102327.843000", "102329.843000", "102331.843000", "102333.843000", "102335.843000", "102337.843000", "102339.843000", "102341.843000", "102343.843000", "102345.843000", "102347.843000", "102349.843000", "102351.843000", "102353.843000", "102355.843000", "102357.843000", "102359.843000", "102401.843000", "102403.843000", "102405.843000", "102407.843000", "102409.843000", "102411.843000", "102413.843000", "102415.843000", "102417.843000", "102419.843000", "102421.843000", "102423.843000", "102425.843000", "102427.843000", "102429.843000", "102431.843000", "102433.843000", "102435.843000", "102437.843000", "102439.843000", "102441.843000", "102443.843000", "102445.843000", "102447.843000", "102449.843000", "102451.843000", "102453.843000", "102455.843000", "102457.843000", "102459.843000", "102501.843000", "102503.843000", "102505.843000", "102507.843000", "102509.843000", "102511.843000", "102513.843000", "102515.843000", "102517.843000", "102519.843000", "102521.843000", "102523.843000", "102525.843000", "102527.843000", "102529.843000", "102531.843000", "102533.843000", "102535.843000", "102537.843000", "102539.843000", "102541.843000", "102543.843000", "102545.843000", "102547.843000", "102549.843000", "102551.843000", "102553.843000", "102555.843000", "102557.843000", "102559.843000", "102601.843000", "102603.843000", "102605.843000", "102607.843000", "102609.843000", "102611.843000", "102613.843000", "102615.843000", "102617.843000", "102619.843000", "102621.843000", "102623.843000", "102625.843000", "102627.843000", "102629.843000", "102631.843000", "102633.843000", "102635.843000", "102637.843000", "102639.843000", "102641.843000", "102643.843000", "102645.843000", "102647.843000", "102649.843000", "102651.843000", "102653.843000", "102655.843000", "102657.843000", "102659.843000", "102701.843000", "102703.843000", "102705.843000", "102707.843000", "102709.843000", "102711.843000", "102713.843000", "102715.843000", "102717.843000", "102719.843000", "102721.843000", "102723.843000", "102725.843000", "102727.828000", "102729.828000", "102731.828000", "102733.828000", "102735.828000", "102737.828000", "102739.828000", "102741.828000", "102743.828000", "102745.828000", "102747.828000", "102749.828000", "102751.828000", "102753.828000", "102755.843000", "102757.828000", "102759.828000", "102801.828000", "102803.828000", "102805.828000", "102807.828000", "102809.828000", "102811.828000", "102813.828000", "102815.828000", "102817.828000", "102819.828000", "102821.828000", "102823.828000", "102825.828000", "102827.828000", "102829.828000", "102831.828000", "102833.828000", "102835.828000", "102837.828000", "102839.828000", "102841.828000", "102843.828000", "102845.828000", "102847.828000", "102849.828000", "102851.828000", "102853.828000", "102855.828000", "102857.828000", "102859.828000", "102901.546000"],
      "InstanceNumber": [1, 2, 3, 4, 5, 6, 7, 8, 9, 10, 11, 12, 13, 14, 15, 16, 17, 18, 19, 20, 21, 22, 23, 24, 25, 26, 27, 28, 29, 30, 31, 32, 33, 34, 35, 36, 37, 38, 39, 40, 41, 42, 43, 44, 45, 46, 47, 48, 49, 50, 51, 52, 53, 54, 55, 56, 57, 58, 59, 60, 61, 62, 63, 64, 65, 66, 67, 68, 69, 70, 71, 72, 73, 74, 75, 76, 77, 78, 79, 80, 81, 82, 83, 84, 85, 86, 87, 88, 89, 90, 91, 92, 93, 94, 95, 96, 97, 98, 99, 100, 101, 102, 103, 104, 105, 106, 107, 108, 109, 110, 111, 112, 113, 114, 115, 116, 117, 118, 119, 120, 121, 122, 123, 124, 125, 126, 127, 128, 129, 130, 131, 132, 133, 134, 135, 136, 137, 138, 139, 140, 141, 142, 143, 144, 145, 146, 147, 148, 149, 150, 151, 152, 153, 154, 155, 156, 157, 158, 159, 160, 161, 162, 163, 164, 165, 166, 167, 168, 169, 170, 171, 172, 173, 174, 175, 176, 177, 178, 179, 180, 181, 182, 183, 184, 185, 186, 187, 188, 189, 190, 191, 192, 193, 194, 195, 196, 197, 198, 199, 200, 201, 202, 203, 204, 205, 206, 207, 208, 209, 210],
      "LargestImagePixelValue": [1935, 1848, 1836, 1811, 1812, 1816, 1815, 1804, 1815, 1811, 1801, 1825, 1818, 1804, 1802, 1822, 1818, 1817, 1810, 1848, 1810, 1827, 1824, 1821, 1810, 1830, 1816, 1842, 1835, 1822, 1815, 1813, 1839, 1848, 1823, 1824, 1820, 1839, 1825, 1817, 1822, 1816, 1809, 1835, 1823, 1808, 1816, 1825, 1820, 1833, 1835, 1834, 1836, 1828, 1817, 1842, 1837, 1792, 1814, 1839, 1824, 1826, 1817, 1821, 1853, 1818, 1836, 1840, 1828, 1826, 1841, 1826, 1808, 1832, 1837, 1812, 1809, 1820, 1820, 1822, 1801, 1827, 1828, 1832, 1823, 1808, 1813, 1833, 1822, 1830, 1833, 1829, 1812, 1821, 1834, 1805, 1825, 1819, 1844, 1860, 1812, 1822, 1834, 1827, 1803, 1847, 1805, 1825, 1832, 1806, 1815, 1859, 1800, 1817, 1841, 1841, 1820, 1820, 1826, 1835, 1815, 1812, 1823, 1830, 1843, 1822, 1817, 1836, 1808, 1818, 1812, 1832, 1836, 1817, 1824, 1813, 1812, 1824, 1834, 1824, 1822, 1825, 1814, 1814, 1829, 1823, 1828, 1820, 1835, 1831, 1836, 1814, 1831, 1845, 1807, 1832, 1816, 1854, 1832, 1849, 1831, 1840, 1824, 1837, 1826, 1819, 1816, 1827, 1828, 1822, 1807, 1841, 1841, 1833, 1814, 1829, 1811, 1820, 1809, 1801, 1811, 1792, 1832, 1816, 1831, 1822, 1795, 1814, 1843, 1823, 1819, 1815, 1799, 1821, 1845, 1827, 1823, 1809, 1840, 1812, 1806, 1806, 1820, 1841, 1804, 1813, 1807, 1841, 1815, 1827],
      "WindowCenter": [756.0, 753.0, 754.0, 754.0, 756.0, 756.0, 756.0, 755.0, 755.0, 757.0, 758.0, 758.0, 757.0, 757.0, 757.0, 757.0, 757.0, 756.0, 754.0, 754.0, 754.0, 754.0, 754.0, 754.0, 754.0, 754.0, 753.0, 753.0, 753.0, 752.0, 753.0, 754.0, 754.0, 753.0, 753.0, 754.0, 755.0, 755.0, 754.0, 754.0, 754.0, 755.0, 756.0, 756.0, 754.0, 753.0, 752.0, 753.0, 754.0, 755.0, 755.0, 755.0, 754.0, 754.0, 755.0, 755.0, 755.0, 754.0, 754.0, 755.0, 755.0, 754.0, 755.0, 756.0, 755.0, 754.0, 754.0, 753.0, 753.0, 754.0, 756.0, 756.0, 755.0, 754.0, 754.0, 754.0, 755.0, 755.0, 755.0, 755.0, 755.0, 754.0, 755.0, 756.0, 756.0, 756.0, 756.0, 756.0, 757.0, 756.0, 755.0, 755.0, 755.0, 756.0, 755.0, 754.0, 755.0, 755.0, 758.0, 758.0, 757.0, 755.0, 754.0, 755.0, 756.0, 756.0, 757.0, 756.0, 756.0, 756.0, 756.0, 756.0, 755.0, 755.0, 755.0, 756.0, 756.0, 756.0, 755.0, 756.0, 756.0, 757.0, 756.0, 755.0, 755.0, 755.0, 755.0, 756.0, 756.0, 756.0, 755.0, 755.0, 755.0, 755.0, 756.0, 758.0, 756.0, 755.0, 754.0, 755.0, 756.0, 756.0, 756.0, 756.0, 755.0, 755.0, 755.0, 755.0, 755.0, 754.0, 754.0, 754.0, 754.0, 755.0, 756.0, 757.0, 757.0, 756.0, 755.0, 756.0, 756.0, 757.0, 757.0, 757.0, 757.0, 757.0, 757.0, 756.0, 755.0, 755.0, 755.0, 756.0, 755.0, 754.0, 754.0, 756.0, 756.0, 756.0, 755.0, 754.0, 754.0, 756.0, 757.0, 757.0, 756.0, 754.0, 754.0, 754.0, 755.0, 755.0, 755.0, 754.0, 755.0, 756.0, 755.0, 755.0, 755.0, 755.0, 757.0, 757.0, 757.0, 756.0, 755.0, 756.0, 756.0, 757.0, 756.0, 756.0, 759.0, 757.0],
      "WindowWidth": [1586.0, 1578.0, 1579.0, 1580.0, 1585.0, 1585.0, 1584.0, 1583.0, 1583.0, 1586.0, 1588.0, 1590.0, 1588.0, 1587.0, 1588.0, 1588.0, 1586.0, 1584.0, 1581.0, 1580.0, 1581.0, 1580.0, 1581.0, 1581.0, 1579.0, 1580.0, 1578.0, 1578.0, 1577.0, 1577.0, 1578.0, 1579.0, 1579.0, 1577.0, 1577.0, 1581.0, 1583.0, 1583.0, 1581.0, 1579.0, 1581.0, 1583.0, 1585.0, 1584.0, 1581.0, 1578.0, 1576.0, 1578.0, 1581.0, 1582.0, 1583.0, 1582.0, 1581.0, 1581.0, 1582.0, 1583.0, 1582.0, 1581.0, 1581.0, 1582.0, 1581.0, 1581.0, 1583.0, 1585.0, 1584.0, 1581.0, 1579.0, 1577.0, 1577.0, 1582.0, 1584.0, 1584.0, 1582.0, 1581.0, 1580.0, 1581.0, 1582.0, 1583.0, 1583.0, 1582.0, 1582.0, 1581.0, 1582.0, 1584.0, 1584.0, 1584.0, 1586.0, 1586.0, 1586.0, 1585.0, 1583.0, 1582.0, 1584.0, 1584.0, 1583.0, 1581.0, 1582.0, 1583.0, 1588.0, 1590.0, 1586.0, 1583.0, 1581.0, 1582.0, 1584.0, 1586.0, 1586.0, 1585.0, 1584.0, 1586.0, 1585.0, 1584.0, 1583.0, 1583.0, 1582.0, 1584.0, 1585.0, 1584.0, 1583.0, 1585.0, 1585.0, 1587.0, 1586.0, 1583.0, 1583.0, 1582.0, 1582.0, 1584.0, 1585.0, 1585.0, 1583.0, 1582.0, 1582.0, 1583.0, 1586.0, 1589.0, 1586.0, 1583.0, 1581.0, 1583.0, 1584.0, 1584.0, 1584.0, 1584.0, 1583.0, 1582.0, 1582.0, 1583.0, 1583.0, 1581.0, 1581.0, 1580.0, 1581.0, 1583.0, 1586.0, 1588.0, 1587.0, 1585.0, 1583.0, 1584.0, 1585.0, 1587.0, 1587.0, 1587.0, 1587.0, 1588.0, 1587.0, 1585.0, 1583.0, 1583.0, 1582.0, 1584.0, 1583.0, 1581.0, 1581.0, 1584.0, 1584.0, 1584.0, 1583.0, 1581.0, 1581.0, 1584.0, 1588.0, 1588.0, 1585.0, 1581.0, 1579.0, 1581.0, 1583.0, 1583.0, 1583.0, 1581.0, 1584.0, 1584.0, 1583.0, 1582.0, 1582.0, 1582.0, 1587.0, 1587.0, 1586.0, 1585.0, 1583.0, 1584.0, 1585.0, 1586.0, 1584.0, 1586.0, 1591.0, 1588.0]
    },
    "slices": {}
  }
}