{
  "AcquisitionMatrixPE": 64,
  "AcquisitionNumber": 1,
  "AcquisitionTime": "18:40:21.962500",
  "BaseResolution": 64,
  "BidsGuess": [
    "fmap",
    "_acq-fm2_phasediff"
  ],
  "CoilCombinationMethod": "Adaptive Combine",
  "CoilString": "C:HEA;HEP",
  "ConversionSoftware": "dcm2niix",
  "ConversionSoftwareVersion": "v1.0.20240202",
  "DeviceSerialNumber": "35119",
  "DwellTime": 0.00003,
  "EchoNumber": 2,
  "EchoTime": 0.00765,
  "EchoTime1": 0.00519,
  "EchoTime2": 0.00765,
  "FlipAngle": 60,
  "HeudiconvVersion": "1.1.6",
  "ImageComments": "V",
  "ImageOrientationPatientDICOM": [
    0.999864,
    0.005398,
    0.015583,
    0,
    0.94491,
    -0.32733
  ],
  "ImageOrientationText": "Tra>Cor(-19.1)>Sag(0.9)",
  "ImageType": [
    "ORIGINAL",
    "PRIMARY",
    "P",
    "ND",
    "PHASE"
  ],
  "ImagingFrequency": 123.251888,
  "InPlanePhaseEncodingDirectionDICOM": "COL",
  "InstitutionAddress": "Chaucer Road  15,Cambridge,UK,GB,CB2 2EF",
  "InstitutionName": "MRC-CBU",
  "IntendedFor": [
    "ses-mri/func/sub-07_ses-mri_task-facerecognition_run-01_bold.nii.gz",
    "ses-mri/func/sub-07_ses-mri_task-facerecognition_run-02_bold.nii.gz",
    "ses-mri/func/sub-07_ses-mri_task-facerecognition_run-03_bold.nii.gz",
    "ses-mri/func/sub-07_ses-mri_task-facerecognition_run-04_bold.nii.gz",
    "ses-mri/func/sub-07_ses-mri_task-facerecognition_run-05_bold.nii.gz",
    "ses-mri/func/sub-07_ses-mri_task-facerecognition_run-06_bold.nii.gz",
    "ses-mri/func/sub-07_ses-mri_task-facerecognition_run-07_bold.nii.gz",
    "ses-mri/func/sub-07_ses-mri_task-facerecognition_run-08_bold.nii.gz",
    "ses-mri/func/sub-07_ses-mri_task-facerecognition_run-09_bold.nii.gz"
  ],
  "MRAcquisitionType": "2D",
  "MagneticFieldStrength": 3,
  "Manufacturer": "Siemens",
  "ManufacturersModelName": "TrioTim",
  "MatrixCoilMode": "SENSE",
  "Modality": "MR",
  "MultibandAccelerationFactor": 2,
  "NonlinearGradientCorrection": false,
  "PartialFourier": 1,
  "PatientPosition": "HFS",
  "PercentPhaseFOV": 100,
  "PercentSampling": 100,
  "PhaseEncodingDirection": "j-",
  "PhaseEncodingSteps": 64,
  "PhaseResolution": 1,
  "PixelBandwidth": 260,
  "ProcedureStepDescription": "CBU^Neuroimaging",
  "ProtocolName": "CBU_FieldMapping",
  "PulseSequenceDetails": "%SiemensSeq%\\gre_field_mapping",
  "ReceiveCoilName": "HeadMatrix",
  "ReconMatrixPE": 64,
  "RepetitionTime": 0.4,
  "SAR": 0.172076,
  "ScanningSequence": "GR",
  "SequenceName": "*fm2d2r",
  "SequenceVariant": "SP",
  "SeriesDescription": "CBU_FieldMapping",
  "SeriesNumber": 13,
  "ShimSetting": [
    -7785,
    -8818,
    -2078,
    923,
    191,
    107,
    -108,
    -53
  ],
  "SliceThickness": 3,
  "SliceTiming": [
    0,
    0.20312,
    0,
    0.21875,
    0.01562,
    0.21875,
    0.03125,
    0.23438,
    0.04688,
    0.25,
    0.04688,
    0.26562,
    0.0625,
    0.28125,
    0.07812,
    0.28125,
    0.09375,
    0.29688,
    0.10938,
    0.3125,
    0.10938,
    0.32812,
    0.125,
    0.32812,
    0.14062,
    0.34375,
    0.15625,
    0.35938,
    0.15625,
    0.375,
    0.17188,
    0.39062,
    0.1875
  ],
  "SoftwareVersions": "syngo MR B15",
  "SpacingBetweenSlices": 3.75,
  "StationName": "MRC35119",
  "TxRefAmp": 295.172,
  "dcmmeta_affine": [
    [
      -2.9995920658111572,
      0.0,
      0.061841998249292374,
      96.6086654663086
    ],
    [
      -0.016194000840187073,
      2.8347299098968506,
      -1.2273190021514893,
      -59.04008102416992
    ],
    [
      0.04674899950623512,
      0.9819899797439575,
      3.5429298877716064,
      -71.94477844238281
    ],
    [
      0.0,
      0.0,
      0.0,
      1.0
    ]
  ],
  "dcmmeta_reorient_transform": [
    [
      0.0,
      -1.0,
      0.0,
      63.0
    ],
    [
      1.0,
      0.0,
      0.0,
      0.0
    ],
    [
      0.0,
      0.0,
      -1.0,
      32.0
    ],
    [
      0.0,
      0.0,
      0.0,
      1.0
    ]
  ],
  "dcmmeta_shape": [
    64,
    64,
    33
  ],
  "dcmmeta_slice_dim": 2,
  "dcmmeta_version": 0.6,
  "global": {
    "const": {
      "AcquisitionMatrix": [
        64,
        0,
        0,
        64
      ],
      "AcquisitionNumber": 1,
      "AngioFlag": "N",
      "BitsAllocated": 16,
      "BitsStored": 12,
      "Columns": 64,
      "EchoNumbers": 2,
      "EchoTime": 7.65,
      "EchoTrainLength": 1,
      "FlipAngle": 60.0,
      "HighBit": 11,
      "ImageOrientationPatient": [
        0.999864,
        0.005398,
        0.015583,
        -0.0,
        0.94491,
        -0.32733
      ],
      "ImageType": [
        "ORIGINAL",
        "PRIMARY",
        "P",
        "ND"
      ],
      "ImagedNucleus": "1H",
      "ImagingFrequency": 123.251888,
      "InPlanePhaseEncodingDirection": "COL",
      "MRAcquisitionType": "2D",
      "MagneticFieldStrength": 3.0,
      "Manufacturer": "SIEMENS",
      "ManufacturerModelName": "TrioTim",
      "Modality": "MR",
      "NumberOfAverages": 1.0,
      "NumberOfPhaseEncodingSteps": 64,
      "PercentPhaseFieldOfView": 100.0,
      "PercentSampling": 100.0,
      "PerformedProcedureStepStartTime": "172442.656000",
      "PhotometricInterpretation": "MONOCHROME2",
      "PixelAspectRatio": [
        1,
        1
      ],
      "PixelBandwidth": 260.0,
      "PixelRepresentation": 0,
      "PixelSpacing": [
        3.0,
        3.0
      ],
      "ProtocolName": "CBU_FieldMapping",
      "RepetitionTime": 400.0,
      "RescaleIntercept": -4096.0,
      "RescaleSlope": 2.0,
      "RescaleType": "US",
      "Rows": 64,
      "SAR": 0.172076,
      "SamplesPerPixel": 1,
      "ScanningSequence": "GR",
      "SequenceName": "*fm2d2r",
      "SequenceVariant": "SP",
      "SeriesDescription": "CBU_FieldMapping",
      "SeriesNumber": 13,
      "SeriesTime": "184114.609000",
      "SliceThickness": 3.0,
      "SoftwareVersions": "syngo MR B15",
      "SpacingBetweenSlices": 3.75,
      "SpecificCharacterSet": "ISO_IR 100",
      "StudyID": "1",
      "StudyTime": "172442.609000",
      "TransmitCoilName": "Body",
      "VariableFlipAngleFlag": "N",
      "WindowCenterWidthExplanation": "Algo1",
      "dBdt": 0.0
    },
    "slices": {
      "AcquisitionTime": [
        "184021.962500",
        "184022.170000",
        "184021.975000",
        "184022.182500",
        "184021.987500",
        "184022.195000",
        "184022.000000",
        "184022.205000",
        "184022.012500",
        "184022.217500",
        "184022.022500",
        "184022.230000",
        "184022.035000",
        "184022.242500",
        "184022.047500",
        "184022.255000",
        "184022.060000",
        "184022.267500",
        "184022.072500",
        "184022.280000",
        "184022.085000",
        "184022.292500",
        "184022.097500",
        "184022.302500",
        "184022.110000",
        "184022.315000",
        "184022.120000",
        "184022.327500",
        "184022.132500",
        "184022.340000",
        "184022.145000",
        "184022.352500",
        "184022.157500"
      ],
      "ContentTime": [
        "184114.625000",
        "184115.171000",
        "184114.640000",
        "184115.171000",
        "184114.640000",
        "184115.171000",
        "184114.656000",
        "184115.187000",
        "184114.656000",
        "184115.187000",
        "184114.656000",
        "184115.187000",
        "184114.671000",
        "184115.203000",
        "184114.671000",
        "184115.203000",
        "184114.687000",
        "184115.218000",
        "184114.687000",
        "184115.218000",
        "184114.703000",
        "184115.218000",
        "184114.703000",
        "184115.234000",
        "184114.718000",
        "184115.234000",
        "184115.156000",
        "184115.234000",
        "184115.156000",
        "184115.250000",
        "184115.156000",
        "184115.484000",
        "184115.171000"
      ],
      "CsaImage.GSWDDataType": [
        "predicted",
        "measured",
        "predicted",
        "measured",
        "predicted",
        "measured",
        "predicted",
        "measured",
        "predicted",
        "measured",
        "predicted",
        "measured",
        "measured",
        "measured",
        "measured",
        "measured",
        "measured",
        "measured",
        "measured",
        "measured",
        "measured",
        "measured",
        "measured",
        "measured",
        "measured",
        "measured",
        "measured",
        "measured",
        "measured",
        "measured",
        "measured",
        "measured",
        "measured"
      ],
      "CsaImage.ICE_Dims": [
        "X_2_1_1_1_1_1_1_1_1_1_1_120",
        "X_2_1_1_1_1_1_18_1_1_2_1_120",
        "X_2_1_1_1_1_1_2_1_1_3_1_120",
        "X_2_1_1_1_1_1_19_1_1_4_1_120",
        "X_2_1_1_1_1_1_3_1_1_5_1_120",
        "X_2_1_1_1_1_1_20_1_1_6_1_120",
        "X_2_1_1_1_1_1_4_1_1_7_1_120",
        "X_2_1_1_1_1_1_21_1_1_8_1_120",
        "X_2_1_1_1_1_1_5_1_1_9_1_120",
        "X_2_1_1_1_1_1_22_1_1_10_1_120",
        "X_2_1_1_1_1_1_6_1_1_11_1_120",
        "X_2_1_1_1_1_1_23_1_1_12_1_120",
        "X_2_1_1_1_1_1_7_1_1_13_1_120",
        "X_2_1_1_1_1_1_24_1_1_14_1_120",
        "X_2_1_1_1_1_1_8_1_1_15_1_120",
        "X_2_1_1_1_1_1_25_1_1_16_1_120",
        "X_2_1_1_1_1_1_9_1_1_17_1_120",
        "X_2_1_1_1_1_1_26_1_1_18_1_120",
        "X_2_1_1_1_1_1_10_1_1_19_1_120",
        "X_2_1_1_1_1_1_27_1_1_20_1_120",
        "X_2_1_1_1_1_1_11_1_1_21_1_120",
        "X_2_1_1_1_1_1_28_1_1_22_1_120",
        "X_2_1_1_1_1_1_12_1_1_23_1_120",
        "X_2_1_1_1_1_1_29_1_1_24_1_120",
        "X_2_1_1_1_1_1_13_1_1_25_1_120",
        "X_2_1_1_1_1_1_30_1_1_26_1_120",
        "X_2_1_1_1_1_1_14_1_1_27_1_120",
        "X_2_1_1_1_1_1_31_1_1_28_1_120",
        "X_2_1_1_1_1_1_15_1_1_29_1_120",
        "X_2_1_1_1_1_1_32_1_1_30_1_120",
        "X_2_1_1_1_1_1_16_1_1_31_1_120",
        "X_2_1_1_1_1_1_33_1_1_32_1_120",
        "X_2_1_1_1_1_1_17_1_1_33_1_120"
      ],
      "CsaImage.ProtocolSliceNumber": [
        0,
        1,
        2,
        3,
        4,
        5,
        6,
        7,
        8,
        9,
        10,
        11,
        12,
        13,
        14,
        15,
        16,
        17,
        18,
        19,
        20,
        21,
        22,
        23,
        24,
        25,
        26,
        27,
        28,
        29,
        30,
        31,
        32
      ],
      "CsaImage.RFSWDDataType": [
        "predicted",
        "measured",
        "predicted",
        "measured",
        "predicted",
        "measured",
        "predicted",
        "measured",
        "predicted",
        "measured",
        "predicted",
        "measured",
        "measured",
        "measured",
        "measured",
        "measured",
        "measured",
        "measured",
        "measured",
        "measured",
        "measured",
        "measured",
        "measured",
        "measured",
        "measured",
        "measured",
        "measured",
        "measured",
        "measured",
        "measured",
        "measured",
        "measured",
        "measured"
      ],
      "CsaImage.SliceMeasurementDuration": [
        50602.5,
        50602.5,
        50602.5,
        50602.5,
        50602.5,
        50602.5,
        50602.5,
        50602.5,
        50602.5,
        50602.5,
        50602.5,
        50602.5,
        50602.5,
        50602.5,
        50602.5,
        50602.5,
        50602.5,
        50602.5,
        50602.5,
        50602.5,
        50602.5,
        50600.0,
        50602.5,
        50602.5,
        50600.0,
        50602.5,
        50602.5,
        50602.5,
        50602.5,
        50602.5,
        50602.5,
        50602.5,
        50602.5
      ],
      "CsaImage.SlicePosition_PCS": [
        [
          -96.60866544,
          -119.54791141,
          -10.07945352
        ],
        [
          -96.67050758,
          -118.32059169,
          -6.53652292
        ],
        [
          -96.73234967,
          -117.09327197,
          -2.99359232
        ],
        [
          -96.79419181,
          -115.86595416,
          0.54934019
        ],
        [
          -96.85603389,
          -114.63863445,
          4.0922708
        ],
        [
          -96.91787604,
          -113.41131473,
          7.6352014
        ],
        [
          -96.97971812,
          -112.18399692,
          11.17813391
        ],
        [
          -97.04156026,
          -110.9566772,
          14.72106547
        ],
        [
          -97.10340235,
          -109.72935748,
          18.26399702
        ],
        [
          -97.16524443,
          -108.50203967,
          21.80692858
        ],
        [
          -97.22708663,
          -107.27471996,
          25.34985966
        ],
        [
          -97.28892872,
          -106.04740119,
          28.8927911
        ],
        [
          -97.3507708,
          -104.82008148,
          32.43572254
        ],
        [
          -97.41261289,
          -103.59276271,
          35.97865433
        ],
        [
          -97.47445497,
          -102.36544395,
          39.52158541
        ],
        [
          -97.53629717,
          -101.13812423,
          43.06451697
        ],
        [
          -97.59813926,
          -99.91080547,
          46.60744948
        ],
        [
          -97.65998134,
          -98.68348623,
          50.15038008
        ],
        [
          -97.72182343,
          -97.45616746,
          53.69331068
        ],
        [
          -97.78366563,
          -96.22884822,
          57.23624319
        ],
        [
          -97.84550771,
          -95.00152922,
          60.7791738
        ],
        [
          -97.9073498,
          -93.77420998,
          64.3221044
        ],
        [
          -97.96919188,
          -92.54689098,
          67.86503882
        ],
        [
          -98.03103396,
          -91.31957195,
          71.40796942
        ],
        [
          -98.09287617,
          -90.09225285,
          74.95090002
        ],
        [
          -98.15471837,
          -88.86493373,
          78.49383063
        ],
        [
          -98.21656034,
          -87.63761473,
          82.03676505
        ],
        [
          -98.27840254,
          -86.41029573,
          85.57969565
        ],
        [
          -98.3402445,
          -85.18297649,
          89.12262625
        ],
        [
          -98.40208671,
          -83.95565772,
          92.66555685
        ],
        [
          -98.46392891,
          -82.72833801,
          96.20849127
        ],
        [
          -98.52577087,
          -81.50101924,
          99.75142188
        ],
        [
          -98.58761308,
          -80.27370048,
          103.29435248
        ]
      ],
      "CsaImage.TimeAfterStart": [
        0.4025,
        0.61,
        0.415,
        0.6225,
        0.4275,
        0.635,
        0.44,
        0.6475,
        0.4525,
        0.6575,
        0.465,
        0.67,
        0.475,
        0.6825,
        0.4875,
        0.695,
        0.5,
        0.7075,
        0.5125,
        0.72,
        0.525,
        0.7325,
        0.5375,
        0.745,
        0.55,
        0.755,
        0.5625,
        0.7675,
        0.5725,
        0.78,
        0.585,
        0.7925,
        0.5975
      ],
      "ImagePositionPatient": [
        [
          -96.608665,
          -119.547911,
          -10.079454
        ],
        [
          -96.670508,
          -118.320592,
          -6.536523
        ],
        [
          -96.73235,
          -117.093272,
          -2.993592
        ],
        [
          -96.794192,
          -115.865954,
          0.54934
        ],
        [
          -96.856034,
          -114.638634,
          4.092271
        ],
        [
          -96.917876,
          -113.411315,
          7.635201
        ],
        [
          -96.979718,
          -112.183997,
          11.178134
        ],
        [
          -97.04156,
          -110.956677,
          14.721065
        ],
        [
          -97.103402,
          -109.729357,
          18.263997
        ],
        [
          -97.165244,
          -108.50204,
          21.806929
        ],
        [
          -97.227087,
          -107.27472,
          25.34986
        ],
        [
          -97.288929,
          -106.047401,
          28.892791
        ],
        [
          -97.350771,
          -104.820081,
          32.435723
        ],
        [
          -97.412613,
          -103.592763,
          35.978654
        ],
        [
          -97.474455,
          -102.365444,
          39.521585
        ],
        [
          -97.536297,
          -101.138124,
          43.064517
        ],
        [
          -97.598139,
          -99.910805,
          46.607449
        ],
        [
          -97.659981,
          -98.683486,
          50.15038
        ],
        [
          -97.721823,
          -97.456167,
          53.693311
        ],
        [
          -97.783666,
          -96.228848,
          57.236243
        ],
        [
          -97.845508,
          -95.001529,
          60.779174
        ],
        [
          -97.90735,
          -93.77421,
          64.322104
        ],
        [
          -97.969192,
          -92.546891,
          67.865039
        ],
        [
          -98.031034,
          -91.319572,
          71.407969
        ],
        [
          -98.092876,
          -90.092253,
          74.9509
        ],
        [
          -98.154718,
          -88.864934,
          78.493831
        ],
        [
          -98.21656,
          -87.637615,
          82.036765
        ],
        [
          -98.278403,
          -86.410296,
          85.579696
        ],
        [
          -98.340245,
          -85.182976,
          89.122626
        ],
        [
          -98.402087,
          -83.955658,
          92.665557
        ],
        [
          -98.463929,
          -82.728338,
          96.208491
        ],
        [
          -98.525771,
          -81.501019,
          99.751422
        ],
        [
          -98.587613,
          -80.2737,
          103.294352
        ]
      ],
      "InstanceCreationTime": [
        "184114.625000",
        "184115.171000",
        "184114.640000",
        "184115.171000",
        "184114.640000",
        "184115.171000",
        "184114.656000",
        "184115.187000",
        "184114.656000",
        "184115.187000",
        "184114.656000",
        "184115.187000",
        "184114.671000",
        "184115.203000",
        "184114.671000",
        "184115.203000",
        "184114.687000",
        "184115.218000",
        "184114.687000",
        "184115.218000",
        "184114.703000",
        "184115.218000",
        "184114.703000",
        "184115.234000",
        "184114.718000",
        "184115.234000",
        "184115.156000",
        "184115.234000",
        "184115.156000",
        "184115.250000",
        "184115.156000",
        "184115.484000",
        "184115.171000"
      ],
      "InstanceNumber": [
        1,
        2,
        3,
        4,
        5,
        6,
        7,
        8,
        9,
        10,
        11,
        12,
        13,
        14,
        15,
        16,
        17,
        18,
        19,
        20,
        21,
        22,
        23,
        24,
        25,
        26,
        27,
        28,
        29,
        30,
        31,
        32,
        33
      ],
      "LargestImagePixelValue": [
        4091,
        4093,
        4094,
        4093,
        4094,
        4089,
        4092,
        4087,
        4085,
        4084,
        4091,
        4092,
        4089,
        4083,
        4091,
        4090,
        4090,
        4092,
        4061,
        4082,
        4086,
        4084,
        4093,
        4092,
        4086,
        4094,
        4093,
        4090,
        4094,
        4092,
        4093,
        4092,
        4092
      ],
      "SliceLocation": [
        -47.055935,
        -43.305936,
        -39.555937,
        -35.805936,
        -32.055937,
        -28.305937,
        -24.555937,
        -20.805936,
        -17.055936,
        -13.305936,
        -9.555937,
        -5.805937,
        -2.055936,
        1.694064,
        5.444063,
        9.194064,
        12.944064,
        16.694064,
        20.444063,
        24.194064,
        27.944063,
        31.694062,
        35.444065,
        39.194064,
        42.944063,
        46.694062,
        50.444065,
        54.194064,
        57.944064,
        61.694063,
        65.444066,
        69.194065,
        72.944064
      ],
      "SmallestImagePixelValue": [
        1,
        3,
        2,
        1,
        5,
        0,
        10,
        0,
        12,
        21,
        3,
        4,
        5,
        17,
        0,
        2,
        7,
        6,
        2,
        7,
        16,
        1,
        1,
        0,
        0,
        0,
        0,
        4,
        1,
        0,
        0,
        4,
        0
      ],
      "WindowCenter": [
        -300.0,
        -178.0,
        -288.0,
        -402.0,
        -482.0,
        -428.0,
        -432.0,
        -370.0,
        -302.0,
        -266.0,
        -218.0,
        -170.0,
        -92.0,
        -74.0,
        -122.0,
        -100.0,
        -90.0,
        -94.0,
        -130.0,
        -120.0,
        -146.0,
        -156.0,
        -168.0,
        -148.0,
        -212.0,
        -228.0,
        -232.0,
        -290.0,
        -294.0,
        -338.0,
        -342.0,
        -406.0,
        -440.0
      ],
      "WindowWidth": [
        5332.0,
        5992.0,
        6030.0,
        5504.0,
        4736.0,
        4646.0,
        4654.0,
        4570.0,
        4534.0,
        4482.0,
        4466.0,
        4404.0,
        4324.0,
        4292.0,
        4324.0,
        4348.0,
        4332.0,
        4332.0,
        4356.0,
        4348.0,
        4356.0,
        4352.0,
        4386.0,
        4394.0,
        4462.0,
        4562.0,
        4592.0,
        4672.0,
        4742.0,
        4790.0,
        4888.0,
        4934.0,
        5042.0
      ]
    }
  }
}
