{
  "AcquisitionMatrixPE": 64,
  "AcquisitionNumber": 1,
  "AcquisitionTime": "13:10:19.867500",
  "BaseResolution": 64,
  "BidsGuess": [
    "fmap",
    "_acq-fm2_phasediff"
  ],
  "CoilCombinationMethod": "Adaptive Combine",
  "CoilString": "C:HEA;HEP",
  "ConversionSoftware": "dcm2niix",
  "ConversionSoftwareVersion": "v1.0.20240202",
  "DeviceSerialNumber": "35119",
  "DwellTime": 0.00003,
  "EchoNumber": 2,
  "EchoTime": 0.00765,
  "EchoTime1": 0.00519,
  "EchoTime2": 0.00765,
  "FlipAngle": 60,
  "HeudiconvVersion": "1.1.6",
  "ImageComments": "V",
  "ImageOrientationPatientDICOM": [
    1,
    0,
    0,
    0,
    0.904083,
    -0.427358
  ],
  "ImageOrientationText": "Tra>Cor(-25.3)",
  "ImageType": [
    "ORIGINAL",
    "PRIMARY",
    "P",
    "ND",
    "PHASE"
  ],
  "ImagingFrequency": 123.251948,
  "InPlanePhaseEncodingDirectionDICOM": "COL",
  "InstitutionAddress": "Chaucer Road  15,Cambridge,UK,GB,CB2 2EF",
  "InstitutionName": "MRC-CBU",
  "IntendedFor": [
    "ses-mri/func/sub-11_ses-mri_task-facerecognition_run-01_bold.nii.gz",
    "ses-mri/func/sub-11_ses-mri_task-facerecognition_run-02_bold.nii.gz",
    "ses-mri/func/sub-11_ses-mri_task-facerecognition_run-03_bold.nii.gz",
    "ses-mri/func/sub-11_ses-mri_task-facerecognition_run-04_bold.nii.gz",
    "ses-mri/func/sub-11_ses-mri_task-facerecognition_run-05_bold.nii.gz",
    "ses-mri/func/sub-11_ses-mri_task-facerecognition_run-06_bold.nii.gz",
    "ses-mri/func/sub-11_ses-mri_task-facerecognition_run-07_bold.nii.gz",
    "ses-mri/func/sub-11_ses-mri_task-facerecognition_run-08_bold.nii.gz",
    "ses-mri/func/sub-11_ses-mri_task-facerecognition_run-09_bold.nii.gz"
  ],
  "MRAcquisitionType": "2D",
  "MagneticFieldStrength": 3,
  "Manufacturer": "Siemens",
  "ManufacturersModelName": "TrioTim",
  "MatrixCoilMode": "SENSE",
  "Modality": "MR",
  "NonlinearGradientCorrection": false,
  "PartialFourier": 1,
  "PatientPosition": "HFS",
  "PercentPhaseFOV": 100,
  "PercentSampling": 100,
  "PhaseEncodingDirection": "j-",
  "PhaseEncodingSteps": 64,
  "PhaseResolution": 1,
  "PixelBandwidth": 260,
  "ProcedureStepDescription": "CBU^Neuroimaging",
  "ProtocolName": "CBU_FieldMapping",
  "PulseSequenceDetails": "%SiemensSeq%\\gre_field_mapping",
  "ReceiveCoilName": "HeadMatrix",
  "ReconMatrixPE": 64,
  "RepetitionTime": 0.4,
  "SAR": 0.213674,
  "ScanningSequence": "GR",
  "SequenceName": "*fm2d2r",
  "SequenceVariant": "SP",
  "SeriesDescription": "CBU_FieldMapping",
  "SeriesNumber": 13,
  "ShimSetting": [
    -7779,
    -8837,
    -2256,
    687,
    190,
    -7,
    -8,
    38
  ],
  "SliceThickness": 3,
  "SliceTiming": [
    0,
    0.21094,
    0.01562,
    0.21875,
    0.02344,
    0.23438,
    0.03906,
    0.24219,
    0.04688,
    0.25781,
    0.0625,
    0.26562,
    0.07031,
    0.28125,
    0.08594,
    0.28906,
    0.10156,
    0.30469,
    0.10938,
    0.32031,
    0.125,
    0.32812,
    0.13281,
    0.34375,
    0.14844,
    0.35156,
    0.15625,
    0.36719,
    0.17188,
    0.375,
    0.17969,
    0.39062,
    0.19531
  ],
  "SoftwareVersions": "syngo MR B15",
  "SpacingBetweenSlices": 3.75,
  "StationName": "MRC35119",
  "TxRefAmp": 317.273,
  "dcmmeta_affine": [
    [
      -3.0,
      0.0,
      0.0,
      98.53389739990234
    ],
    [
      0.0,
      2.7122490406036377,
      -1.6025910377502441,
      -51.000064849853516
    ],
    [
      0.0,
      1.282073974609375,
      3.3903090953826904,
      -82.27011108398438
    ],
    [
      0.0,
      0.0,
      0.0,
      1.0
    ]
  ],
  "dcmmeta_reorient_transform": [
    [
      0.0,
      -1.0,
      0.0,
      63.0
    ],
    [
      1.0,
      0.0,
      0.0,
      0.0
    ],
    [
      0.0,
      0.0,
      -1.0,
      32.0
    ],
    [
      0.0,
      0.0,
      0.0,
      1.0
    ]
  ],
  "dcmmeta_shape": [
    64,
    64,
    33
  ],
  "dcmmeta_slice_dim": 2,
  "dcmmeta_version": 0.6,
  "global": {
    "const": {
      "AcquisitionMatrix": [
        64,
        0,
        0,
        64
      ],
      "AcquisitionNumber": 1,
      "AngioFlag": "N",
      "BitsAllocated": 16,
      "BitsStored": 12,
      "Columns": 64,
      "EchoNumbers": 2,
      "EchoTime": 7.65,
      "EchoTrainLength": 1,
      "FlipAngle": 60.0,
      "HighBit": 11,
      "ImageOrientationPatient": [
        1.0,
        0.0,
        0.0,
        0.0,
        0.904083,
        -0.427358
      ],
      "ImageType": [
        "ORIGINAL",
        "PRIMARY",
        "P",
        "ND"
      ],
      "ImagedNucleus": "1H",
      "ImagingFrequency": 123.251948,
      "InPlanePhaseEncodingDirection": "COL",
      "MRAcquisitionType": "2D",
      "MagneticFieldStrength": 3.0,
      "Manufacturer": "SIEMENS",
      "ManufacturerModelName": "TrioTim",
      "Modality": "MR",
      "NumberOfAverages": 1.0,
      "NumberOfPhaseEncodingSteps": 64,
      "PercentPhaseFieldOfView": 100.0,
      "PercentSampling": 100.0,
      "PerformedProcedureStepStartTime": "115356.140000",
      "PhotometricInterpretation": "MONOCHROME2",
      "PixelAspectRatio": [
        1,
        1
      ],
      "PixelBandwidth": 260.0,
      "PixelRepresentation": 0,
      "PixelSpacing": [
        3.0,
        3.0
      ],
      "ProtocolName": "CBU_FieldMapping",
      "RepetitionTime": 400.0,
      "RescaleIntercept": -4096.0,
      "RescaleSlope": 2.0,
      "RescaleType": "US",
      "Rows": 64,
      "SAR": 0.213674,
      "SamplesPerPixel": 1,
      "ScanningSequence": "GR",
      "SequenceName": "*fm2d2r",
      "SequenceVariant": "SP",
      "SeriesDescription": "CBU_FieldMapping",
      "SeriesNumber": 13,
      "SeriesTime": "131112.718000",
      "SliceThickness": 3.0,
      "SoftwareVersions": "syngo MR B15",
      "SpacingBetweenSlices": 3.75,
      "SpecificCharacterSet": "ISO_IR 100",
      "StudyID": "1",
      "StudyTime": "115356.093000",
      "TransmitCoilName": "Body",
      "VariableFlipAngleFlag": "N",
      "WindowCenterWidthExplanation": "Algo1",
      "dBdt": 0.0
    },
    "slices": {
      "AcquisitionTime": [
        "131019.867500",
        "131020.075000",
        "131019.880000",
        "131020.087500",
        "131019.892500",
        "131020.100000",
        "131019.905000",
        "131020.110000",
        "131019.917500",
        "131020.122500",
        "131019.927500",
        "131020.135000",
        "131019.940000",
        "131020.147500",
        "131019.952500",
        "131020.160000",
        "131019.965000",
        "131020.172500",
        "131019.977500",
        "131020.185000",
        "131019.990000",
        "131020.197500",
        "131020.002500",
        "131020.207500",
        "131020.015000",
        "131020.220000",
        "131020.025000",
        "131020.232500",
        "131020.037500",
        "131020.245000",
        "131020.050000",
        "131020.257500",
        "131020.062500"
      ],
      "ContentTime": [
        "131112.734000",
        "131113.937000",
        "131112.765000",
        "131113.953000",
        "131112.765000",
        "131113.953000",
        "131112.765000",
        "131113.953000",
        "131112.828000",
        "131113.953000",
        "131113.875000",
        "131113.968000",
        "131113.890000",
        "131113.968000",
        "131113.890000",
        "131113.968000",
        "131113.890000",
        "131113.968000",
        "131113.906000",
        "131113.984000",
        "131113.906000",
        "131113.984000",
        "131113.921000",
        "131114.000000",
        "131113.921000",
        "131114.000000",
        "131113.921000",
        "131114.000000",
        "131113.921000",
        "131114.156000",
        "131113.937000",
        "131114.218000",
        "131113.937000"
      ],
      "CsaImage.ICE_Dims": [
        "X_2_1_1_1_1_1_1_1_1_1_1_54",
        "X_2_1_1_1_1_1_18_1_1_2_1_54",
        "X_2_1_1_1_1_1_2_1_1_3_1_54",
        "X_2_1_1_1_1_1_19_1_1_4_1_54",
        "X_2_1_1_1_1_1_3_1_1_5_1_54",
        "X_2_1_1_1_1_1_20_1_1_6_1_54",
        "X_2_1_1_1_1_1_4_1_1_7_1_54",
        "X_2_1_1_1_1_1_21_1_1_8_1_54",
        "X_2_1_1_1_1_1_5_1_1_9_1_54",
        "X_2_1_1_1_1_1_22_1_1_10_1_54",
        "X_2_1_1_1_1_1_6_1_1_11_1_54",
        "X_2_1_1_1_1_1_23_1_1_12_1_54",
        "X_2_1_1_1_1_1_7_1_1_13_1_54",
        "X_2_1_1_1_1_1_24_1_1_14_1_54",
        "X_2_1_1_1_1_1_8_1_1_15_1_54",
        "X_2_1_1_1_1_1_25_1_1_16_1_54",
        "X_2_1_1_1_1_1_9_1_1_17_1_54",
        "X_2_1_1_1_1_1_26_1_1_18_1_54",
        "X_2_1_1_1_1_1_10_1_1_19_1_54",
        "X_2_1_1_1_1_1_27_1_1_20_1_54",
        "X_2_1_1_1_1_1_11_1_1_21_1_54",
        "X_2_1_1_1_1_1_28_1_1_22_1_54",
        "X_2_1_1_1_1_1_12_1_1_23_1_54",
        "X_2_1_1_1_1_1_29_1_1_24_1_54",
        "X_2_1_1_1_1_1_13_1_1_25_1_54",
        "X_2_1_1_1_1_1_30_1_1_26_1_54",
        "X_2_1_1_1_1_1_14_1_1_27_1_54",
        "X_2_1_1_1_1_1_31_1_1_28_1_54",
        "X_2_1_1_1_1_1_15_1_1_29_1_54",
        "X_2_1_1_1_1_1_32_1_1_30_1_54",
        "X_2_1_1_1_1_1_16_1_1_31_1_54",
        "X_2_1_1_1_1_1_33_1_1_32_1_54",
        "X_2_1_1_1_1_1_17_1_1_33_1_54"
      ],
      "CsaImage.ProtocolSliceNumber": [
        0,
        1,
        2,
        3,
        4,
        5,
        6,
        7,
        8,
        9,
        10,
        11,
        12,
        13,
        14,
        15,
        16,
        17,
        18,
        19,
        20,
        21,
        22,
        23,
        24,
        25,
        26,
        27,
        28,
        29,
        30,
        31,
        32
      ],
      "CsaImage.SlicePosition_PCS": [
        [
          -98.53389835,
          -119.87165107,
          -1.49946878
        ],
        [
          -98.53389835,
          -118.26906051,
          1.89084341
        ],
        [
          -98.53389835,
          -116.66646804,
          5.28115179
        ],
        [
          -98.53389835,
          -115.06387558,
          8.67146017
        ],
        [
          -98.53389835,
          -113.46128501,
          12.06177046
        ],
        [
          -98.53389835,
          -111.85869255,
          15.45208075
        ],
        [
          -98.53389835,
          -110.25610008,
          18.84238913
        ],
        [
          -98.53389835,
          -108.65350761,
          22.23269942
        ],
        [
          -98.53389835,
          -107.05091705,
          25.62300875
        ],
        [
          -98.53389835,
          -105.44832458,
          29.01331808
        ],
        [
          -98.53389835,
          -103.84573211,
          32.40362742
        ],
        [
          -98.53389835,
          -102.2431406,
          35.79393723
        ],
        [
          -98.53389835,
          -100.64054813,
          39.1842468
        ],
        [
          -98.53389835,
          -99.03795661,
          42.57455637
        ],
        [
          -98.53389835,
          -97.43536415,
          45.96486571
        ],
        [
          -98.53389835,
          -95.83277263,
          49.35517504
        ],
        [
          -98.53389835,
          -94.23018064,
          52.74548533
        ],
        [
          -98.53389835,
          -92.62758865,
          56.13579466
        ],
        [
          -98.53389835,
          -91.02499666,
          59.52610495
        ],
        [
          -98.53389835,
          -89.42240467,
          62.91641333
        ],
        [
          -98.53389835,
          -87.81981256,
          66.30672362
        ],
        [
          -98.53389835,
          -86.21722062,
          69.697032
        ],
        [
          -98.53389835,
          -84.61462869,
          73.08734229
        ],
        [
          -98.53389835,
          -83.0120367,
          76.47765067
        ],
        [
          -98.53389835,
          -81.40944471,
          79.86796286
        ],
        [
          -98.53389835,
          -79.80685272,
          83.25827124
        ],
        [
          -98.53389835,
          -78.20426025,
          86.64857962
        ],
        [
          -98.53389835,
          -76.60166873,
          90.03889182
        ],
        [
          -98.53389835,
          -74.99907627,
          93.4292002
        ],
        [
          -98.53389835,
          -73.39648475,
          96.81950858
        ],
        [
          -98.53389835,
          -71.79389228,
          100.20982077
        ],
        [
          -98.53389835,
          -70.19129982,
          103.60012915
        ],
        [
          -98.53389835,
          -68.58870925,
          106.99043753
        ]
      ],
      "CsaImage.TimeAfterStart": [
        0.4025,
        0.61,
        0.415,
        0.6225,
        0.4275,
        0.635,
        0.44,
        0.6475,
        0.4525,
        0.6575,
        0.465,
        0.67,
        0.475,
        0.6825,
        0.4875,
        0.695,
        0.5,
        0.7075,
        0.5125,
        0.72,
        0.525,
        0.7325,
        0.5375,
        0.745,
        0.55,
        0.755,
        0.5625,
        0.7675,
        0.5725,
        0.78,
        0.585,
        0.7925,
        0.5975
      ],
      "ImagePositionPatient": [
        [
          -98.533898,
          -119.871651,
          -1.499469
        ],
        [
          -98.533898,
          -118.269061,
          1.890843
        ],
        [
          -98.533898,
          -116.666468,
          5.281152
        ],
        [
          -98.533898,
          -115.063876,
          8.67146
        ],
        [
          -98.533898,
          -113.461285,
          12.06177
        ],
        [
          -98.533898,
          -111.858693,
          15.452081
        ],
        [
          -98.533898,
          -110.2561,
          18.842389
        ],
        [
          -98.533898,
          -108.653508,
          22.232699
        ],
        [
          -98.533898,
          -107.050917,
          25.623009
        ],
        [
          -98.533898,
          -105.448325,
          29.013318
        ],
        [
          -98.533898,
          -103.845732,
          32.403627
        ],
        [
          -98.533898,
          -102.243141,
          35.793937
        ],
        [
          -98.533898,
          -100.640548,
          39.184247
        ],
        [
          -98.533898,
          -99.037957,
          42.574556
        ],
        [
          -98.533898,
          -97.435364,
          45.964866
        ],
        [
          -98.533898,
          -95.832773,
          49.355175
        ],
        [
          -98.533898,
          -94.230181,
          52.745485
        ],
        [
          -98.533898,
          -92.627589,
          56.135795
        ],
        [
          -98.533898,
          -91.024997,
          59.526105
        ],
        [
          -98.533898,
          -89.422405,
          62.916413
        ],
        [
          -98.533898,
          -87.819813,
          66.306724
        ],
        [
          -98.533898,
          -86.217221,
          69.697032
        ],
        [
          -98.533898,
          -84.614629,
          73.087342
        ],
        [
          -98.533898,
          -83.012037,
          76.477651
        ],
        [
          -98.533898,
          -81.409445,
          79.867963
        ],
        [
          -98.533898,
          -79.806853,
          83.258271
        ],
        [
          -98.533898,
          -78.20426,
          86.64858
        ],
        [
          -98.533898,
          -76.601669,
          90.038892
        ],
        [
          -98.533898,
          -74.999076,
          93.4292
        ],
        [
          -98.533898,
          -73.396485,
          96.819509
        ],
        [
          -98.533898,
          -71.793892,
          100.209821
        ],
        [
          -98.533898,
          -70.1913,
          103.600129
        ],
        [
          -98.533898,
          -68.588709,
          106.990438
        ]
      ],
      "InstanceCreationTime": [
        "131112.734000",
        "131113.937000",
        "131112.765000",
        "131113.953000",
        "131112.765000",
        "131113.953000",
        "131112.765000",
        "131113.953000",
        "131112.828000",
        "131113.953000",
        "131113.875000",
        "131113.968000",
        "131113.890000",
        "131113.968000",
        "131113.890000",
        "131113.968000",
        "131113.890000",
        "131113.968000",
        "131113.906000",
        "131113.984000",
        "131113.906000",
        "131113.984000",
        "131113.921000",
        "131114.000000",
        "131113.921000",
        "131114.000000",
        "131113.921000",
        "131114.000000",
        "131113.921000",
        "131114.156000",
        "131113.937000",
        "131114.218000",
        "131113.937000"
      ],
      "InstanceNumber": [
        1,
        2,
        3,
        4,
        5,
        6,
        7,
        8,
        9,
        10,
        11,
        12,
        13,
        14,
        15,
        16,
        17,
        18,
        19,
        20,
        21,
        22,
        23,
        24,
        25,
        26,
        27,
        28,
        29,
        30,
        31,
        32,
        33
      ],
      "LargestImagePixelValue": [
        4092,
        4093,
        4092,
        4093,
        4086,
        4093,
        4094,
        4070,
        4082,
        4083,
        4091,
        4089,
        4090,
        4081,
        4086,
        4087,
        4063,
        4083,
        4090,
        4087,
        4080,
        4080,
        4090,
        4086,
        4090,
        4091,
        4093,
        4093,
        4094,
        4093,
        4094,
        4093,
        4094
      ],
      "SliceLocation": [
        -52.583739,
        -48.833737,
        -45.083738,
        -41.333738,
        -37.583738,
        -33.833738,
        -30.083738,
        -26.333738,
        -22.583738,
        -18.833738,
        -15.083738,
        -11.333738,
        -7.583738,
        -3.833738,
        -0.083738,
        3.666261,
        7.416262,
        11.166262,
        14.916262,
        18.666261,
        22.416262,
        26.166261,
        29.916262,
        33.66626,
        37.416263,
        41.166262,
        44.916261,
        48.666263,
        52.416262,
        56.166261,
        59.916264,
        63.666263,
        67.416261
      ],
      "SmallestImagePixelValue": [
        4,
        0,
        0,
        19,
        1,
        27,
        0,
        1,
        6,
        3,
        10,
        10,
        6,
        5,
        4,
        9,
        2,
        8,
        31,
        3,
        7,
        3,
        11,
        11,
        1,
        11,
        5,
        4,
        2,
        5,
        4,
        3,
        0
      ],
      "WindowCenter": [
        -438.0,
        -358.0,
        -346.0,
        -406.0,
        -412.0,
        -352.0,
        -382.0,
        -330.0,
        -316.0,
        -300.0,
        -246.0,
        -162.0,
        -116.0,
        -94.0,
        -124.0,
        -116.0,
        -106.0,
        -78.0,
        -76.0,
        -96.0,
        -104.0,
        -130.0,
        -154.0,
        -168.0,
        -192.0,
        -214.0,
        -184.0,
        -184.0,
        -200.0,
        -242.0,
        -248.0,
        -318.0,
        -396.0
      ],
      "WindowWidth": [
        4724.0,
        4660.0,
        4628.0,
        4556.0,
        4458.0,
        4440.0,
        4428.0,
        4390.0,
        4374.0,
        4370.0,
        4298.0,
        4220.0,
        4138.0,
        4128.0,
        4182.0,
        4178.0,
        4186.0,
        4148.0,
        4164.0,
        4094.0,
        4102.0,
        4086.0,
        4104.0,
        4112.0,
        4220.0,
        4240.0,
        4324.0,
        4372.0,
        4476.0,
        4582.0,
        4632.0,
        4720.0,
        4848.0
      ]
    }
  }
}
