{
  "AcquisitionMatrixPE": 64,
  "AcquisitionNumber": 1,
  "AcquisitionTime": "10:23:5.602500",
  "BandwidthPerPixelPhaseEncode": 30.637,
  "BaseResolution": 64,
  "BidsGuess": [
    "func",
    "_acq-epfid2_dir-AP_run-5_bold"
],
  "CoilCombinationMethod": "Sum of Squares",
  "CoilString": "C:HEA;HEP",
  "ConversionSoftware": "dcm2niix",
  "ConversionSoftwareVersion": "v1.0.20240202",
  "DerivedVendorReportedEchoSpacing": 0.000510004,
  "DeviceSerialNumber": "35119",
  "DwellTime": 3.5e-06,
  "EchoTime": 0.03,
  "EffectiveEchoSpacing": 0.000510004,
  "FlipAngle": 78,
  "HeudiconvVersion": "1.1.6",
  "ImageComments": "V",
  "ImageOrientationPatientDICOM": [0.99892, 0.0184, 0.042669, 0, 0.918262, -0.395973],
  "ImageOrientationText": "Tra>Cor(-23.3)>Sag(2.7)",
  "ImageType": [
    "ORIGINAL",
    "PRIMARY",
    "M",
    "ND",
    "MOSAIC"
],
  "ImagingFrequency": 123.251719,
  "InPlanePhaseEncodingDirectionDICOM": "COL",
  "InstitutionAddress": "Chaucer Road  15,Cambridge,UK,GB,CB2 2EF",
  "InstitutionName": "MRC-CBU",
  "MRAcquisitionType": "2D",
  "MagneticFieldStrength": 3,
  "Manufacturer": "Siemens",
  "ManufacturersModelName": "TrioTim",
  "MatrixCoilMode": "SENSE",
  "Modality": "MR",
  "NonlinearGradientCorrection": false,
  "PartialFourier": 1,
  "PatientPosition": "HFS",
  "PercentPhaseFOV": 100,
  "PercentSampling": 100,
  "PhaseEncodingDirection": "j-",
  "PhaseEncodingSteps": 64,
  "PhaseResolution": 1,
  "PixelBandwidth": 2230,
  "ProcedureStepDescription": "CBU^Neuroimaging",
  "ProtocolName": "CBU_DWEPI_BOLD210",
  "PulseSequenceDetails": "%SiemensSeq%\\ep2d_bold",
  "ReceiveCoilName": "HeadMatrix",
  "ReconMatrixPE": 64,
  "RepetitionTime": 2,
  "SAR": 0.166426,
  "ScanOptions": "FS",
  "ScanningSequence": "EP",
  "SequenceName": "*epfid2d1_64",
  "SequenceVariant": "SK",
  "SeriesDescription": "CBU_DWEPI_BOLD210",
  "SeriesNumber": 5,
  "ShimSetting": [-7736, -8653, -1974, 879, 317, 442, -138, 26],
  "SliceThickness": 3,
  "SliceTiming": [0, 1.035, 0.06, 1.095, 0.1225, 1.155, 0.1825, 1.2175, 0.2425, 1.2775, 0.305, 1.3375, 0.365, 1.4, 0.425, 1.46, 0.4875, 1.52, 0.5475, 1.5825, 0.6075, 1.6425, 0.67, 1.7025, 0.73, 1.765, 0.79, 1.825, 0.8525, 1.885, 0.9125, 1.9475, 0.9725],
  "SoftwareVersions": "syngo MR B15",
  "SpacingBetweenSlices": 4.05,
  "StationName": "MRC35119",
  "TaskName": "faceprocessing",
  "TotalReadoutTime": 0.0321303,
  "TxRefAmp": 361.9,
  "dcmmeta_affine": [
    [-2.9967598915100098, 0.0, 0.18819226324558258, 95.24853515625],
    [-0.0551999993622303, 2.7547860145568848, -1.6019586324691772, -43.49232482910156],
    [0.12800699472427368, 1.187919020652771, 3.71494460105896, -73.54055786132812],
    [0.0, 0.0, 0.0, 1.0]
],
  "dcmmeta_reorient_transform": [
    [0.0, -1.0, 0.0, 63.0],
    [1.0, 0.0, 0.0, 0.0],
    [0.0, 0.0, 1.0, 0.0],
    [0.0, 0.0, 0.0, 1.0]
],
  "dcmmeta_shape": [64, 64, 33, 210],
  "dcmmeta_slice_dim": 2,
  "dcmmeta_version": 0.6,
  "global": {
    "const": {
      "AcquisitionMatrix": [64, 0, 0, 64],
      "AngioFlag": "N",
      "BitsAllocated": 16,
      "BitsStored": 12,
      "Columns": 384,
      "EchoNumbers": 1,
      "EchoTime": 30.0,
      "EchoTrainLength": 1,
      "FlipAngle": 78.0,
      "HighBit": 11,
      "ImageOrientationPatient": [0.99892, 0.0184, 0.042669, 0.0, 0.918262, -0.395973],
      "ImagePositionPatient": [-574.730133, -579.656954, 170.884259],
      "ImageType": [
        "ORIGINAL",
        "PRIMARY",
        "M",
        "ND",
        "MOSAIC"
],
      "ImagedNucleus": "1H",
      "ImagingFrequency": 123.251719,
      "InPlanePhaseEncodingDirection": "COL",
      "MRAcquisitionType": "2D",
      "MagneticFieldStrength": 3.0,
      "Manufacturer": "SIEMENS",
      "ManufacturerModelName": "TrioTim",
      "Modality": "MR",
      "NumberOfAverages": 1.0,
      "NumberOfPhaseEncodingSteps": 64,
      "PercentPhaseFieldOfView": 100.0,
      "PercentSampling": 100.0,
      "PerformedProcedureStepStartTime": "095737.218000",
      "PhotometricInterpretation": "MONOCHROME2",
      "PixelAspectRatio": [1, 1],
      "PixelBandwidth": 2230.0,
      "PixelRepresentation": 0,
      "PixelSpacing": [3.0, 3.0],
      "ProtocolName": "CBU_DWEPI_BOLD210",
      "RepetitionTime": 2000.0,
      "Rows": 384,
      "SAR": 0.166426,
      "SamplesPerPixel": 1,
      "ScanOptions": "FS",
      "ScanningSequence": "EP",
      "SequenceName": "*epfid2d1_64",
      "SequenceVariant": "SK",
      "SeriesDescription": "CBU_DWEPI_BOLD210",
      "SeriesNumber": 5,
      "SeriesTime": "102308.484000",
      "SliceLocation": -45.82775,
      "SliceThickness": 3.0,
      "SmallestImagePixelValue": 0,
      "SoftwareVersions": "syngo MR B15",
      "SpacingBetweenSlices": 4.05,
      "SpecificCharacterSet": "ISO_IR 100",
      "StudyID": "1",
      "StudyTime": "095737.046000",
      "TransmitCoilName": "Body",
      "VariableFlipAngleFlag": "N",
      "WindowCenterWidthExplanation": "Algo1",
      "dBdt": 0.0},
    "slices": {}
  },
  "time": {
    "samples": {
      "AcquisitionNumber": [1, 2, 3, 4, 5, 6, 7, 8, 9, 10, 11, 12, 13, 14, 15, 16, 17, 18, 19, 20, 21, 22, 23, 24, 25, 26, 27, 28, 29, 30, 31, 32, 33, 34, 35, 36, 37, 38, 39, 40, 41, 42, 43, 44, 45, 46, 47, 48, 49, 50, 51, 52, 53, 54, 55, 56, 57, 58, 59, 60, 61, 62, 63, 64, 65, 66, 67, 68, 69, 70, 71, 72, 73, 74, 75, 76, 77, 78, 79, 80, 81, 82, 83, 84, 85, 86, 87, 88, 89, 90, 91, 92, 93, 94, 95, 96, 97, 98, 99, 100, 101, 102, 103, 104, 105, 106, 107, 108, 109, 110, 111, 112, 113, 114, 115, 116, 117, 118, 119, 120, 121, 122, 123, 124, 125, 126, 127, 128, 129, 130, 131, 132, 133, 134, 135, 136, 137, 138, 139, 140, 141, 142, 143, 144, 145, 146, 147, 148, 149, 150, 151, 152, 153, 154, 155, 156, 157, 158, 159, 160, 161, 162, 163, 164, 165, 166, 167, 168, 169, 170, 171, 172, 173, 174, 175, 176, 177, 178, 179, 180, 181, 182, 183, 184, 185, 186, 187, 188, 189, 190, 191, 192, 193, 194, 195, 196, 197, 198, 199, 200, 201, 202, 203, 204, 205, 206, 207, 208, 209, 210],
      "AcquisitionTime": ["102305.602500", "102307.610000", "102309.617500", "102311.627500", "102313.635000", "102315.642500", "102317.650000", "102319.657500", "102321.667500", "102323.675000", "102325.682500", "102327.690000", "102329.700000", "102331.707500", "102333.715000", "102335.722500", "102337.730000", "102339.740000", "102341.747500", "102343.755000", "102345.762500", "102347.770000", "102349.780000", "102351.787500", "102353.795000", "102355.802500", "102357.812500", "102359.820000", "102401.827500", "102403.835000", "102405.842500", "102407.852500", "102409.860000", "102411.867500", "102413.875000", "102415.882500", "102417.892500", "102419.900000", "102421.907500", "102423.915000", "102425.922500", "102427.932500", "102429.940000", "102431.947500", "102433.955000", "102435.965000", "102437.972500", "102439.980000", "102441.987500", "102443.995000", "102446.005000", "102448.012500", "102450.020000", "102452.027500", "102454.035000", "102456.045000", "102458.052500", "102500.060000", "102502.067500", "102504.077500", "102506.085000", "102508.092500", "102510.100000", "102512.107500", "102514.117500", "102516.125000", "102518.132500", "102520.140000", "102522.147500", "102524.157500", "102526.165000", "102528.172500", "102530.180000", "102532.190000", "102534.197500", "102536.205000", "102538.212500", "102540.220000", "102542.230000", "102544.237500", "102546.245000", "102548.252500", "102550.260000", "102552.270000", "102554.277500", "102556.285000", "102558.292500", "102600.300000", "102602.310000", "102604.317500", "102606.325000", "102608.332500", "102610.342500", "102612.350000", "102614.357500", "102616.365000", "102618.372500", "102620.382500", "102622.390000", "102624.397500", "102626.405000", "102628.412500", "102630.422500", "102632.430000", "102634.437500", "102636.445000", "102638.455000", "102640.462500", "102642.470000", "102644.477500", "102646.485000", "102648.495000", "102650.502500", "102652.510000", "102654.517500", "102656.525000", "102658.535000", "102700.542500", "102702.550000", "102704.557500", "102706.567500", "102708.575000", "102710.582500", "102712.590000", "102714.597500", "102716.607500", "102718.615000", "102720.622500", "102722.630000", "102724.637500", "102726.647500", "102728.655000", "102730.662500", "102732.670000", "102734.677500", "102736.687500", "102738.695000", "102740.702500", "102742.710000", "102744.720000", "102746.727500", "102748.735000", "102750.742500", "102752.750000", "102754.760000", "102756.767500", "102758.775000", "102800.782500", "102802.790000", "102804.800000", "102806.807500", "102808.815000", "102810.822500", "102812.832500", "102814.840000", "102816.847500", "102818.855000", "102820.862500", "102822.872500", "102824.880000", "102826.887500", "102828.895000", "102830.902500", "102832.912500", "102834.920000", "102836.927500", "102838.935000", "102840.945000", "102842.952500", "102844.960000", "102846.967500", "102848.975000", "102850.985000", "102852.992500", "102855.000000", "102857.007500", "102859.015000", "102901.025000", "102903.032500", "102905.040000", "102907.047500", "102909.055000", "102911.065000", "102913.072500", "102915.080000", "102917.087500", "102919.097500", "102921.105000", "102923.112500", "102925.120000", "102927.127500", "102929.137500", "102931.145000", "102933.152500", "102935.160000", "102937.167500", "102939.177500", "102941.185000", "102943.192500", "102945.200000", "102947.210000", "102949.217500", "102951.225000", "102953.232500", "102955.240000", "102957.250000", "102959.257500", "103001.265000", "103003.272500", "103005.280000"],
      "ContentTime": ["102308.484000", "102310.484000", "102312.484000", "102314.484000", "102316.484000", "102318.484000", "102320.484000", "102322.484000", "102324.484000", "102326.484000", "102328.484000", "102330.484000", "102332.484000", "102334.484000", "102336.484000", "102338.484000", "102340.484000", "102342.484000", "102344.484000", "102346.484000", "102348.484000", "102350.484000", "102352.484000", "102354.484000", "102356.484000", "102358.484000", "102400.484000", "102402.484000", "102404.484000", "102406.484000", "102408.484000", "102410.484000", "102412.484000", "102414.484000", "102416.484000", "102418.484000", "102420.484000", "102422.484000", "102424.484000", "102426.484000", "102428.484000", "102430.484000", "102432.484000", "102434.484000", "102436.484000", "102438.484000", "102440.484000", "102442.484000", "102444.484000", "102446.484000", "102448.484000", "102450.484000", "102452.484000", "102454.484000", "102456.484000", "102458.484000", "102500.484000", "102502.484000", "102504.484000", "102506.484000", "102508.484000", "102510.484000", "102512.484000", "102514.484000", "102516.484000", "102518.484000", "102520.484000", "102522.484000", "102524.484000", "102526.484000", "102528.484000", "102530.484000", "102532.484000", "102534.484000", "102536.484000", "102538.484000", "102540.484000", "102542.484000", "102544.484000", "102546.484000", "102548.484000", "102550.484000", "102552.484000", "102554.484000", "102556.484000", "102558.484000", "102600.484000", "102602.484000", "102604.484000", "102606.484000", "102608.484000", "102610.484000", "102612.484000", "102614.484000", "102616.484000", "102618.484000", "102620.484000", "102622.484000", "102624.484000", "102626.484000", "102628.984000", "102630.484000", "102632.484000", "102634.484000", "102636.984000", "102638.484000", "102640.484000", "102642.484000", "102644.484000", "102646.484000", "102648.484000", "102650.484000", "102652.484000", "102654.484000", "102656.484000", "102658.484000", "102700.484000", "102702.484000", "102704.484000", "102706.484000", "102708.484000", "102710.484000", "102712.484000", "102714.484000", "102716.484000", "102718.484000", "102720.484000", "102722.484000", "102724.484000", "102726.484000", "102728.484000", "102730.484000", "102732.484000", "102734.484000", "102736.484000", "102738.484000", "102740.484000", "102742.484000", "102744.484000", "102746.484000", "102748.484000", "102750.484000", "102752.484000", "102754.484000", "102756.484000", "102758.484000", "102800.484000", "102802.484000", "102804.484000", "102806.484000", "102808.484000", "102810.484000", "102812.484000", "102814.484000", "102816.484000", "102818.484000", "102820.484000", "102822.484000", "102824.484000", "102826.484000", "102828.484000", "102830.484000", "102832.484000", "102834.484000", "102836.484000", "102838.484000", "102840.484000", "102842.484000", "102844.484000", "102846.484000", "102848.484000", "102850.484000", "102852.484000", "102854.484000", "102856.484000", "102858.484000", "102900.484000", "102902.484000", "102904.484000", "102906.484000", "102908.484000", "102910.484000", "102912.484000", "102914.984000", "102916.484000", "102918.484000", "102920.484000", "102922.484000", "102924.484000", "102926.484000", "102928.484000", "102930.484000", "102932.484000", "102934.484000", "102936.484000", "102938.484000", "102940.484000", "102942.484000", "102944.484000", "102946.484000", "102948.484000", "102950.484000", "102952.484000", "102954.484000", "102956.984000", "102958.484000", "103000.484000", "103002.484000", "103004.484000", "103006.281000"],
      "InstanceCreationTime": ["102308.484000", "102310.484000", "102312.484000", "102314.484000", "102316.484000", "102318.484000", "102320.484000", "102322.484000", "102324.484000", "102326.484000", "102328.484000", "102330.484000", "102332.484000", "102334.484000", "102336.484000", "102338.484000", "102340.484000", "102342.484000", "102344.484000", "102346.484000", "102348.484000", "102350.484000", "102352.484000", "102354.484000", "102356.484000", "102358.484000", "102400.484000", "102402.484000", "102404.484000", "102406.484000", "102408.484000", "102410.484000", "102412.484000", "102414.484000", "102416.484000", "102418.484000", "102420.484000", "102422.484000", "102424.484000", "102426.484000", "102428.484000", "102430.484000", "102432.484000", "102434.484000", "102436.484000", "102438.484000", "102440.484000", "102442.484000", "102444.484000", "102446.484000", "102448.484000", "102450.484000", "102452.484000", "102454.484000", "102456.484000", "102458.484000", "102500.484000", "102502.484000", "102504.484000", "102506.484000", "102508.484000", "102510.484000", "102512.484000", "102514.484000", "102516.484000", "102518.484000", "102520.484000", "102522.484000", "102524.484000", "102526.484000", "102528.484000", "102530.484000", "102532.484000", "102534.484000", "102536.484000", "102538.484000", "102540.484000", "102542.484000", "102544.484000", "102546.484000", "102548.484000", "102550.484000", "102552.484000", "102554.484000", "102556.484000", "102558.484000", "102600.484000", "102602.484000", "102604.484000", "102606.484000", "102608.484000", "102610.484000", "102612.484000", "102614.484000", "102616.484000", "102618.484000", "102620.484000", "102622.484000", "102624.484000", "102626.484000", "102628.984000", "102630.484000", "102632.484000", "102634.484000", "102636.984000", "102638.484000", "102640.484000", "102642.484000", "102644.484000", "102646.484000", "102648.484000", "102650.484000", "102652.484000", "102654.484000", "102656.484000", "102658.484000", "102700.484000", "102702.484000", "102704.484000", "102706.484000", "102708.484000", "102710.484000", "102712.484000", "102714.484000", "102716.484000", "102718.484000", "102720.484000", "102722.484000", "102724.484000", "102726.484000", "102728.484000", "102730.484000", "102732.484000", "102734.484000", "102736.484000", "102738.484000", "102740.484000", "102742.484000", "102744.484000", "102746.484000", "102748.484000", "102750.484000", "102752.484000", "102754.484000", "102756.484000", "102758.484000", "102800.484000", "102802.484000", "102804.484000", "102806.484000", "102808.484000", "102810.484000", "102812.484000", "102814.484000", "102816.484000", "102818.484000", "102820.484000", "102822.484000", "102824.484000", "102826.484000", "102828.484000", "102830.484000", "102832.484000", "102834.484000", "102836.484000", "102838.484000", "102840.484000", "102842.484000", "102844.484000", "102846.484000", "102848.484000", "102850.484000", "102852.484000", "102854.484000", "102856.484000", "102858.484000", "102900.484000", "102902.484000", "102904.484000", "102906.484000", "102908.484000", "102910.484000", "102912.484000", "102914.984000", "102916.484000", "102918.484000", "102920.484000", "102922.484000", "102924.484000", "102926.484000", "102928.484000", "102930.484000", "102932.484000", "102934.484000", "102936.484000", "102938.484000", "102940.484000", "102942.484000", "102944.484000", "102946.484000", "102948.484000", "102950.484000", "102952.484000", "102954.484000", "102956.984000", "102958.484000", "103000.484000", "103002.484000", "103004.484000", "103006.281000"],
      "InstanceNumber": [1, 2, 3, 4, 5, 6, 7, 8, 9, 10, 11, 12, 13, 14, 15, 16, 17, 18, 19, 20, 21, 22, 23, 24, 25, 26, 27, 28, 29, 30, 31, 32, 33, 34, 35, 36, 37, 38, 39, 40, 41, 42, 43, 44, 45, 46, 47, 48, 49, 50, 51, 52, 53, 54, 55, 56, 57, 58, 59, 60, 61, 62, 63, 64, 65, 66, 67, 68, 69, 70, 71, 72, 73, 74, 75, 76, 77, 78, 79, 80, 81, 82, 83, 84, 85, 86, 87, 88, 89, 90, 91, 92, 93, 94, 95, 96, 97, 98, 99, 100, 101, 102, 103, 104, 105, 106, 107, 108, 109, 110, 111, 112, 113, 114, 115, 116, 117, 118, 119, 120, 121, 122, 123, 124, 125, 126, 127, 128, 129, 130, 131, 132, 133, 134, 135, 136, 137, 138, 139, 140, 141, 142, 143, 144, 145, 146, 147, 148, 149, 150, 151, 152, 153, 154, 155, 156, 157, 158, 159, 160, 161, 162, 163, 164, 165, 166, 167, 168, 169, 170, 171, 172, 173, 174, 175, 176, 177, 178, 179, 180, 181, 182, 183, 184, 185, 186, 187, 188, 189, 190, 191, 192, 193, 194, 195, 196, 197, 198, 199, 200, 201, 202, 203, 204, 205, 206, 207, 208, 209, 210],
      "LargestImagePixelValue": [2287, 2137, 2083, 2064, 2079, 2085, 2103, 2083, 2078, 2094, 2077, 2058, 2083, 2072, 2078, 2076, 2064, 2073, 2072, 2079, 2088, 2082, 2098, 2082, 2081, 2065, 2064, 2075, 2077, 2096, 2083, 2094, 2099, 2074, 2063, 2086, 2100, 2057, 2089, 2087, 2096, 2094, 2091, 2119, 2086, 2109, 2096, 2061, 2134, 2082, 2081, 2072, 2073, 2067, 2076, 2085, 2110, 2072, 2068, 2088, 2069, 2076, 2071, 2073, 2078, 2088, 2112, 2117, 2091, 2090, 2076, 2119, 2101, 2086, 2115, 2093, 2098, 2089, 2068, 2062, 2067, 2094, 2077, 2073, 2074, 2079, 2079, 2083, 2091, 2081, 2096, 2083, 2105, 2196, 2075, 2080, 2100, 2111, 2099, 2083, 2072, 2084, 2088, 2093, 2085, 2227, 2090, 2081, 2205, 2076, 2077, 2078, 2088, 2104, 2097, 2095, 2094, 2188, 2072, 2081, 2072, 2078, 2154, 2056, 2118, 2076, 2081, 2094, 2084, 2064, 2093, 2101, 2092, 2105, 2091, 2132, 2098, 2080, 2090, 2121, 2180, 2063, 2088, 2067, 2081, 2093, 2078, 2044, 2089, 2092, 2078, 2087, 2093, 2090, 2102, 2091, 2107, 2113, 2108, 2106, 2102, 2098, 2095, 2107, 2093, 2109, 2097, 2074, 2096, 2105, 2099, 2109, 2091, 2106, 2087, 2084, 2077, 2073, 2106, 2079, 2060, 2086, 2086, 2089, 2094, 2080, 2089, 2083, 2097, 2084, 2071, 2107, 2098, 2094, 2111, 2137, 2118, 2125, 2090, 2106, 2105, 2113, 2110, 2101, 2124, 2118, 2116, 2116, 2075, 2101],
      "WindowCenter": [827.0, 820.0, 818.0, 816.0, 816.0, 815.0, 816.0, 816.0, 815.0, 814.0, 814.0, 815.0, 816.0, 816.0, 815.0, 815.0, 814.0, 813.0, 813.0, 813.0, 813.0, 814.0, 814.0, 814.0, 814.0, 815.0, 815.0, 816.0, 816.0, 816.0, 816.0, 816.0, 815.0, 815.0, 816.0, 817.0, 817.0, 815.0, 814.0, 815.0, 815.0, 816.0, 815.0, 815.0, 815.0, 815.0, 815.0, 814.0, 815.0, 815.0, 816.0, 816.0, 816.0, 816.0, 817.0, 816.0, 816.0, 815.0, 816.0, 816.0, 816.0, 816.0, 816.0, 817.0, 817.0, 816.0, 817.0, 816.0, 816.0, 816.0, 817.0, 818.0, 817.0, 817.0, 816.0, 817.0, 816.0, 817.0, 816.0, 814.0, 814.0, 815.0, 817.0, 817.0, 816.0, 815.0, 816.0, 816.0, 817.0, 816.0, 816.0, 815.0, 816.0, 817.0, 816.0, 817.0, 817.0, 817.0, 817.0, 816.0, 816.0, 816.0, 816.0, 816.0, 816.0, 817.0, 817.0, 817.0, 817.0, 817.0, 817.0, 817.0, 816.0, 817.0, 818.0, 817.0, 816.0, 815.0, 815.0, 815.0, 816.0, 818.0, 818.0, 817.0, 818.0, 818.0, 818.0, 817.0, 817.0, 817.0, 818.0, 818.0, 818.0, 818.0, 818.0, 818.0, 818.0, 818.0, 818.0, 823.0, 818.0, 819.0, 817.0, 815.0, 811.0, 810.0, 811.0, 813.0, 815.0, 817.0, 818.0, 822.0, 821.0, 820.0, 819.0, 819.0, 819.0, 818.0, 818.0, 818.0, 819.0, 820.0, 819.0, 819.0, 820.0, 820.0, 819.0, 818.0, 818.0, 817.0, 818.0, 819.0, 819.0, 819.0, 819.0, 818.0, 818.0, 820.0, 819.0, 818.0, 818.0, 818.0, 819.0, 819.0, 819.0, 820.0, 821.0, 820.0, 820.0, 819.0, 818.0, 820.0, 819.0, 818.0, 818.0, 818.0, 819.0, 819.0, 818.0, 818.0, 819.0, 820.0, 819.0, 818.0, 817.0, 817.0, 819.0, 820.0, 820.0, 819.0],
      "WindowWidth": [1725.0, 1704.0, 1699.0, 1695.0, 1694.0, 1693.0, 1695.0, 1695.0, 1692.0, 1691.0, 1690.0, 1693.0, 1695.0, 1695.0, 1693.0, 1692.0, 1690.0, 1688.0, 1688.0, 1688.0, 1689.0, 1691.0, 1691.0, 1690.0, 1690.0, 1692.0, 1693.0, 1694.0, 1694.0, 1694.0, 1695.0, 1695.0, 1694.0, 1693.0, 1695.0, 1698.0, 1697.0, 1691.0, 1690.0, 1692.0, 1694.0, 1694.0, 1693.0, 1693.0, 1692.0, 1693.0, 1692.0, 1691.0, 1693.0, 1692.0, 1694.0, 1694.0, 1694.0, 1695.0, 1696.0, 1695.0, 1696.0, 1693.0, 1694.0, 1695.0, 1694.0, 1696.0, 1696.0, 1698.0, 1697.0, 1695.0, 1697.0, 1697.0, 1695.0, 1695.0, 1696.0, 1699.0, 1698.0, 1697.0, 1696.0, 1696.0, 1696.0, 1697.0, 1695.0, 1692.0, 1690.0, 1693.0, 1696.0, 1696.0, 1694.0, 1693.0, 1695.0, 1696.0, 1696.0, 1695.0, 1694.0, 1693.0, 1695.0, 1696.0, 1695.0, 1697.0, 1698.0, 1698.0, 1697.0, 1696.0, 1696.0, 1695.0, 1695.0, 1696.0, 1696.0, 1699.0, 1697.0, 1697.0, 1697.0, 1697.0, 1698.0, 1696.0, 1696.0, 1697.0, 1700.0, 1697.0, 1693.0, 1694.0, 1692.0, 1693.0, 1695.0, 1699.0, 1699.0, 1696.0, 1699.0, 1699.0, 1699.0, 1698.0, 1696.0, 1697.0, 1699.0, 1698.0, 1699.0, 1699.0, 1699.0, 1699.0, 1699.0, 1700.0, 1701.0, 1711.0, 1701.0, 1700.0, 1698.0, 1692.0, 1684.0, 1682.0, 1684.0, 1688.0, 1692.0, 1697.0, 1701.0, 1708.0, 1707.0, 1704.0, 1702.0, 1702.0, 1702.0, 1700.0, 1699.0, 1700.0, 1703.0, 1703.0, 1703.0, 1703.0, 1704.0, 1704.0, 1703.0, 1700.0, 1699.0, 1697.0, 1700.0, 1701.0, 1701.0, 1702.0, 1701.0, 1699.0, 1700.0, 1703.0, 1701.0, 1699.0, 1699.0, 1701.0, 1702.0, 1702.0, 1703.0, 1705.0, 1706.0, 1704.0, 1703.0, 1702.0, 1701.0, 1706.0, 1703.0, 1701.0, 1700.0, 1700.0, 1702.0, 1703.0, 1700.0, 1700.0, 1702.0, 1704.0, 1703.0, 1699.0, 1697.0, 1698.0, 1702.0, 1704.0, 1703.0, 1701.0]
    },
    "slices": {}
  }
}