{
  "AcquisitionMatrixPE": 64,
  "AcquisitionNumber": 1,
  "AcquisitionTime": "10:45:28.347500",
  "BandwidthPerPixelPhaseEncode": 30.637,
  "BaseResolution": 64,
  "BidsGuess": [
    "func",
    "_acq-epfid2_dir-AP_run-8_bold"
],
  "CoilCombinationMethod": "Sum of Squares",
  "CoilString": "C:HEA;HEP",
  "ConversionSoftware": "dcm2niix",
  "ConversionSoftwareVersion": "v1.0.20240202",
  "DerivedVendorReportedEchoSpacing": 0.000510004,
  "DeviceSerialNumber": "35119",
  "DwellTime": 3.5e-06,
  "EchoTime": 0.03,
  "EffectiveEchoSpacing": 0.000510004,
  "FlipAngle": 78,
  "HeudiconvVersion": "1.1.6",
  "ImageComments": "V",
  "ImageOrientationPatientDICOM": [0.99892, 0.0184, 0.042669, 0, 0.918262, -0.395973],
  "ImageOrientationText": "Tra>Cor(-23.3)>Sag(2.7)",
  "ImageType": [
    "ORIGINAL",
    "PRIMARY",
    "M",
    "ND",
    "MOSAIC"
],
  "ImagingFrequency": 123.251745,
  "InPlanePhaseEncodingDirectionDICOM": "COL",
  "InstitutionAddress": "Chaucer Road  15,Cambridge,UK,GB,CB2 2EF",
  "InstitutionName": "MRC-CBU",
  "MRAcquisitionType": "2D",
  "MagneticFieldStrength": 3,
  "Manufacturer": "Siemens",
  "ManufacturersModelName": "TrioTim",
  "MatrixCoilMode": "SENSE",
  "Modality": "MR",
  "NonlinearGradientCorrection": false,
  "PartialFourier": 1,
  "PatientPosition": "HFS",
  "PercentPhaseFOV": 100,
  "PercentSampling": 100,
  "PhaseEncodingDirection": "j-",
  "PhaseEncodingSteps": 64,
  "PhaseResolution": 1,
  "PixelBandwidth": 2230,
  "ProcedureStepDescription": "CBU^Neuroimaging",
  "ProtocolName": "CBU_DWEPI_BOLD210",
  "PulseSequenceDetails": "%SiemensSeq%\\ep2d_bold",
  "ReceiveCoilName": "HeadMatrix",
  "ReconMatrixPE": 64,
  "RepetitionTime": 2,
  "SAR": 0.166426,
  "ScanOptions": "FS",
  "ScanningSequence": "EP",
  "SequenceName": "*epfid2d1_64",
  "SequenceVariant": "SK",
  "SeriesDescription": "CBU_DWEPI_BOLD210",
  "SeriesNumber": 8,
  "ShimSetting": [-7736, -8651, -1976, 871, 316, 464, -140, 27],
  "SliceThickness": 3,
  "SliceTiming": [0, 1.0325, 0.06, 1.095, 0.12, 1.155, 0.1825, 1.215, 0.2425, 1.2775, 0.3025, 1.3375, 0.365, 1.3975, 0.425, 1.46, 0.485, 1.52, 0.5475, 1.58, 0.6075, 1.6425, 0.6675, 1.7025, 0.73, 1.7625, 0.79, 1.825, 0.85, 1.885, 0.9125, 1.945, 0.9725],
  "SoftwareVersions": "syngo MR B15",
  "SpacingBetweenSlices": 4.05,
  "StationName": "MRC35119",
  "TaskName": "faceprocessing",
  "TotalReadoutTime": 0.0321303,
  "TxRefAmp": 361.9,
  "dcmmeta_affine": [
    [-2.9967598915100098, 0.0, 0.18819226324558258, 95.24853515625],
    [-0.0551999993622303, 2.7547860145568848, -1.6019586324691772, -46.59159851074219],
    [0.12800699472427368, 1.187919020652771, 3.71494460105896, -73.54055786132812],
    [0.0, 0.0, 0.0, 1.0]
],
  "dcmmeta_reorient_transform": [
    [0.0, -1.0, 0.0, 63.0],
    [1.0, 0.0, 0.0, 0.0],
    [0.0, 0.0, 1.0, 0.0],
    [0.0, 0.0, 0.0, 1.0]
],
  "dcmmeta_shape": [64, 64, 33, 210],
  "dcmmeta_slice_dim": 2,
  "dcmmeta_version": 0.6,
  "global": {
    "const": {
      "AcquisitionMatrix": [64, 0, 0, 64],
      "AngioFlag": "N",
      "BitsAllocated": 16,
      "BitsStored": 12,
      "Columns": 384,
      "EchoNumbers": 1,
      "EchoTime": 30.0,
      "EchoTrainLength": 1,
      "FlipAngle": 78.0,
      "HighBit": 11,
      "ImageOrientationPatient": [0.99892, 0.0184, 0.042669, 0.0, 0.918262, -0.395973],
      "ImagePositionPatient": [-574.730133, -576.55768, 170.884259],
      "ImageType": [
        "ORIGINAL",
        "PRIMARY",
        "M",
        "ND",
        "MOSAIC"
],
      "ImagedNucleus": "1H",
      "ImagingFrequency": 123.251745,
      "InPlanePhaseEncodingDirection": "COL",
      "MRAcquisitionType": "2D",
      "MagneticFieldStrength": 3.0,
      "Manufacturer": "SIEMENS",
      "ManufacturerModelName": "TrioTim",
      "Modality": "MR",
      "NumberOfAverages": 1.0,
      "NumberOfPhaseEncodingSteps": 64,
      "PercentPhaseFieldOfView": 100.0,
      "PercentSampling": 100.0,
      "PerformedProcedureStepStartTime": "095737.218000",
      "PhotometricInterpretation": "MONOCHROME2",
      "PixelAspectRatio": [1, 1],
      "PixelBandwidth": 2230.0,
      "PixelRepresentation": 0,
      "PixelSpacing": [3.0, 3.0],
      "ProtocolName": "CBU_DWEPI_BOLD210",
      "RepetitionTime": 2000.0,
      "Rows": 384,
      "SAR": 0.166426,
      "SamplesPerPixel": 1,
      "ScanOptions": "FS",
      "ScanningSequence": "EP",
      "SequenceName": "*epfid2d1_64",
      "SequenceVariant": "SK",
      "SeriesDescription": "CBU_DWEPI_BOLD210",
      "SeriesNumber": 8,
      "SeriesTime": "104531.875000",
      "SliceLocation": -44.601846,
      "SliceThickness": 3.0,
      "SmallestImagePixelValue": 0,
      "SoftwareVersions": "syngo MR B15",
      "SpacingBetweenSlices": 4.05,
      "SpecificCharacterSet": "ISO_IR 100",
      "StudyID": "1",
      "StudyTime": "095737.046000",
      "TransmitCoilName": "Body",
      "VariableFlipAngleFlag": "N",
      "WindowCenterWidthExplanation": "Algo1",
      "dBdt": 0.0},
    "slices": {}
  },
  "time": {
    "samples": {
      "AcquisitionNumber": [1, 2, 3, 4, 5, 6, 7, 8, 9, 10, 11, 12, 13, 14, 15, 16, 17, 18, 19, 20, 21, 22, 23, 24, 25, 26, 27, 28, 29, 30, 31, 32, 33, 34, 35, 36, 37, 38, 39, 40, 41, 42, 43, 44, 45, 46, 47, 48, 49, 50, 51, 52, 53, 54, 55, 56, 57, 58, 59, 60, 61, 62, 63, 64, 65, 66, 67, 68, 69, 70, 71, 72, 73, 74, 75, 76, 77, 78, 79, 80, 81, 82, 83, 84, 85, 86, 87, 88, 89, 90, 91, 92, 93, 94, 95, 96, 97, 98, 99, 100, 101, 102, 103, 104, 105, 106, 107, 108, 109, 110, 111, 112, 113, 114, 115, 116, 117, 118, 119, 120, 121, 122, 123, 124, 125, 126, 127, 128, 129, 130, 131, 132, 133, 134, 135, 136, 137, 138, 139, 140, 141, 142, 143, 144, 145, 146, 147, 148, 149, 150, 151, 152, 153, 154, 155, 156, 157, 158, 159, 160, 161, 162, 163, 164, 165, 166, 167, 168, 169, 170, 171, 172, 173, 174, 175, 176, 177, 178, 179, 180, 181, 182, 183, 184, 185, 186, 187, 188, 189, 190, 191, 192, 193, 194, 195, 196, 197, 198, 199, 200, 201, 202, 203, 204, 205, 206, 207, 208, 209, 210],
      "AcquisitionTime": ["104528.347500", "104530.355000", "104532.362500", "104534.370000", "104536.380000", "104538.387500", "104540.395000", "104542.402500", "104544.410000", "104546.420000", "104548.427500", "104550.435000", "104552.442500", "104554.452500", "104556.460000", "104558.467500", "104600.475000", "104602.482500", "104604.492500", "104606.500000", "104608.507500", "104610.515000", "104612.522500", "104614.532500", "104616.540000", "104618.547500", "104620.555000", "104622.565000", "104624.572500", "104626.580000", "104628.587500", "104630.595000", "104632.605000", "104634.612500", "104636.620000", "104638.627500", "104640.635000", "104642.645000", "104644.652500", "104646.660000", "104648.667500", "104650.677500", "104652.685000", "104654.692500", "104656.700000", "104658.707500", "104700.717500", "104702.725000", "104704.732500", "104706.740000", "104708.747500", "104710.757500", "104712.765000", "104714.772500", "104716.780000", "104718.787500", "104720.797500", "104722.805000", "104724.812500", "104726.820000", "104728.830000", "104730.837500", "104732.845000", "104734.852500", "104736.860000", "104738.870000", "104740.877500", "104742.885000", "104744.892500", "104746.900000", "104748.910000", "104750.917500", "104752.925000", "104754.932500", "104756.942500", "104758.950000", "104800.957500", "104802.965000", "104804.972500", "104806.982500", "104808.990000", "104810.997500", "104813.005000", "104815.012500", "104817.022500", "104819.030000", "104821.037500", "104823.045000", "104825.055000", "104827.062500", "104829.070000", "104831.077500", "104833.085000", "104835.095000", "104837.102500", "104839.110000", "104841.117500", "104843.125000", "104845.135000", "104847.142500", "104849.150000", "104851.157500", "104853.165000", "104855.175000", "104857.182500", "104859.190000", "104901.197500", "104903.207500", "104905.215000", "104907.222500", "104909.230000", "104911.237500", "104913.247500", "104915.255000", "104917.262500", "104919.270000", "104921.277500", "104923.287500", "104925.295000", "104927.302500", "104929.310000", "104931.320000", "104933.327500", "104935.335000", "104937.342500", "104939.350000", "104941.360000", "104943.367500", "104945.375000", "104947.382500", "104949.390000", "104951.400000", "104953.407500", "104955.415000", "104957.422500", "104959.432500", "105001.440000", "105003.447500", "105005.455000", "105007.462500", "105009.472500", "105011.480000", "105013.487500", "105015.495000", "105017.502500", "105019.512500", "105021.520000", "105023.527500", "105025.535000", "105027.545000", "105029.552500", "105031.560000", "105033.567500", "105035.575000", "105037.585000", "105039.592500", "105041.600000", "105043.607500", "105045.615000", "105047.625000", "105049.632500", "105051.640000", "105053.647500", "105055.655000", "105057.665000", "105059.672500", "105101.680000", "105103.687500", "105105.697500", "105107.705000", "105109.712500", "105111.720000", "105113.727500", "105115.737500", "105117.745000", "105119.752500", "105121.760000", "105123.767500", "105125.777500", "105127.785000", "105129.792500", "105131.800000", "105133.810000", "105135.817500", "105137.825000", "105139.832500", "105141.840000", "105143.850000", "105145.857500", "105147.865000", "105149.872500", "105151.880000", "105153.890000", "105155.897500", "105157.905000", "105159.912500", "105201.922500", "105203.930000", "105205.937500", "105207.945000", "105209.952500", "105211.962500", "105213.970000", "105215.977500", "105217.985000", "105219.992500", "105222.002500", "105224.010000", "105226.017500", "105228.025000"],
      "ContentTime": ["104531.875000", "104533.859000", "104535.859000", "104537.859000", "104539.859000", "104541.859000", "104543.859000", "104545.859000", "104547.859000", "104549.859000", "104551.859000", "104553.875000", "104555.859000", "104557.859000", "104559.859000", "104601.859000", "104603.875000", "104605.859000", "104607.859000", "104609.859000", "104611.859000", "104613.859000", "104615.875000", "104617.875000", "104619.859000", "104621.859000", "104623.859000", "104625.859000", "104627.859000", "104629.859000", "104631.859000", "104633.859000", "104635.875000", "104637.859000", "104639.859000", "104641.859000", "104643.859000", "104645.859000", "104647.859000", "104649.859000", "104651.859000", "104653.859000", "104655.859000", "104657.859000", "104659.859000", "104701.859000", "104703.859000", "104705.859000", "104707.859000", "104709.859000", "104711.859000", "104713.859000", "104715.875000", "104717.859000", "104719.859000", "104721.859000", "104723.859000", "104725.859000", "104727.859000", "104729.859000", "104731.859000", "104733.859000", "104735.859000", "104737.859000", "104739.859000", "104741.859000", "104743.859000", "104745.859000", "104747.859000", "104749.859000", "104751.859000", "104753.859000", "104755.859000", "104757.859000", "104759.859000", "104801.859000", "104803.859000", "104805.859000", "104807.875000", "104809.859000", "104811.859000", "104813.859000", "104815.859000", "104817.859000", "104819.859000", "104821.859000", "104823.875000", "104825.859000", "104827.859000", "104829.859000", "104831.875000", "104833.859000", "104835.859000", "104837.859000", "104839.859000", "104841.859000", "104843.859000", "104845.859000", "104847.859000", "104849.859000", "104851.859000", "104853.859000", "104855.859000", "104857.859000", "104859.859000", "104901.859000", "104903.859000", "104905.859000", "104907.859000", "104909.859000", "104911.859000", "104913.859000", "104915.875000", "104917.859000", "104919.859000", "104921.859000", "104923.859000", "104925.859000", "104927.859000", "104929.859000", "104931.859000", "104933.859000", "104935.859000", "104937.859000", "104939.859000", "104941.859000", "104943.859000", "104945.859000", "104947.859000", "104949.859000", "104951.859000", "104953.859000", "104955.859000", "104957.859000", "104959.859000", "105001.859000", "105003.859000", "105005.859000", "105007.859000", "105009.859000", "105011.859000", "105013.875000", "105015.859000", "105017.859000", "105019.859000", "105021.859000", "105023.859000", "105025.859000", "105027.859000", "105029.859000", "105031.859000", "105033.859000", "105035.859000", "105037.859000", "105039.859000", "105041.859000", "105043.859000", "105045.859000", "105047.859000", "105049.859000", "105051.875000", "105053.859000", "105055.859000", "105057.859000", "105059.859000", "105101.859000", "105103.859000", "105105.859000", "105107.859000", "105109.859000", "105111.859000", "105113.875000", "105115.859000", "105117.859000", "105119.859000", "105121.859000", "105123.859000", "105125.859000", "105127.859000", "105129.859000", "105131.859000", "105133.859000", "105135.859000", "105137.859000", "105139.859000", "105141.859000", "105143.859000", "105145.859000", "105147.859000", "105149.859000", "105151.859000", "105153.859000", "105155.859000", "105157.859000", "105159.859000", "105201.859000", "105203.859000", "105205.859000", "105207.859000", "105209.859000", "105211.859000", "105213.875000", "105215.859000", "105217.859000", "105219.875000", "105221.859000", "105223.859000", "105225.875000", "105227.859000", "105229.437000"],
      "InstanceCreationTime": ["104531.875000", "104533.859000", "104535.859000", "104537.859000", "104539.859000", "104541.859000", "104543.859000", "104545.859000", "104547.859000", "104549.859000", "104551.859000", "104553.875000", "104555.859000", "104557.859000", "104559.859000", "104601.859000", "104603.875000", "104605.859000", "104607.859000", "104609.859000", "104611.859000", "104613.859000", "104615.875000", "104617.875000", "104619.859000", "104621.859000", "104623.859000", "104625.859000", "104627.859000", "104629.859000", "104631.859000", "104633.859000", "104635.875000", "104637.859000", "104639.859000", "104641.859000", "104643.859000", "104645.859000", "104647.859000", "104649.859000", "104651.859000", "104653.859000", "104655.859000", "104657.859000", "104659.859000", "104701.859000", "104703.859000", "104705.859000", "104707.859000", "104709.859000", "104711.859000", "104713.859000", "104715.875000", "104717.859000", "104719.859000", "104721.859000", "104723.859000", "104725.859000", "104727.859000", "104729.859000", "104731.859000", "104733.859000", "104735.859000", "104737.859000", "104739.859000", "104741.859000", "104743.859000", "104745.859000", "104747.859000", "104749.859000", "104751.859000", "104753.859000", "104755.859000", "104757.859000", "104759.859000", "104801.859000", "104803.859000", "104805.859000", "104807.875000", "104809.859000", "104811.859000", "104813.859000", "104815.859000", "104817.859000", "104819.859000", "104821.859000", "104823.875000", "104825.859000", "104827.859000", "104829.859000", "104831.875000", "104833.859000", "104835.859000", "104837.859000", "104839.859000", "104841.859000", "104843.859000", "104845.859000", "104847.859000", "104849.859000", "104851.859000", "104853.859000", "104855.859000", "104857.859000", "104859.859000", "104901.859000", "104903.859000", "104905.859000", "104907.859000", "104909.859000", "104911.859000", "104913.859000", "104915.875000", "104917.859000", "104919.859000", "104921.859000", "104923.859000", "104925.859000", "104927.859000", "104929.859000", "104931.859000", "104933.859000", "104935.859000", "104937.859000", "104939.859000", "104941.859000", "104943.859000", "104945.859000", "104947.859000", "104949.859000", "104951.859000", "104953.859000", "104955.859000", "104957.859000", "104959.859000", "105001.859000", "105003.859000", "105005.859000", "105007.859000", "105009.859000", "105011.859000", "105013.875000", "105015.859000", "105017.859000", "105019.859000", "105021.859000", "105023.859000", "105025.859000", "105027.859000", "105029.859000", "105031.859000", "105033.859000", "105035.859000", "105037.859000", "105039.859000", "105041.859000", "105043.859000", "105045.859000", "105047.859000", "105049.859000", "105051.875000", "105053.859000", "105055.859000", "105057.859000", "105059.859000", "105101.859000", "105103.859000", "105105.859000", "105107.859000", "105109.859000", "105111.859000", "105113.875000", "105115.859000", "105117.859000", "105119.859000", "105121.859000", "105123.859000", "105125.859000", "105127.859000", "105129.859000", "105131.859000", "105133.859000", "105135.859000", "105137.859000", "105139.859000", "105141.859000", "105143.859000", "105145.859000", "105147.859000", "105149.859000", "105151.859000", "105153.859000", "105155.859000", "105157.859000", "105159.859000", "105201.859000", "105203.859000", "105205.859000", "105207.859000", "105209.859000", "105211.859000", "105213.875000", "105215.859000", "105217.859000", "105219.875000", "105221.859000", "105223.859000", "105225.875000", "105227.859000", "105229.437000"],
      "InstanceNumber": [1, 2, 3, 4, 5, 6, 7, 8, 9, 10, 11, 12, 13, 14, 15, 16, 17, 18, 19, 20, 21, 22, 23, 24, 25, 26, 27, 28, 29, 30, 31, 32, 33, 34, 35, 36, 37, 38, 39, 40, 41, 42, 43, 44, 45, 46, 47, 48, 49, 50, 51, 52, 53, 54, 55, 56, 57, 58, 59, 60, 61, 62, 63, 64, 65, 66, 67, 68, 69, 70, 71, 72, 73, 74, 75, 76, 77, 78, 79, 80, 81, 82, 83, 84, 85, 86, 87, 88, 89, 90, 91, 92, 93, 94, 95, 96, 97, 98, 99, 100, 101, 102, 103, 104, 105, 106, 107, 108, 109, 110, 111, 112, 113, 114, 115, 116, 117, 118, 119, 120, 121, 122, 123, 124, 125, 126, 127, 128, 129, 130, 131, 132, 133, 134, 135, 136, 137, 138, 139, 140, 141, 142, 143, 144, 145, 146, 147, 148, 149, 150, 151, 152, 153, 154, 155, 156, 157, 158, 159, 160, 161, 162, 163, 164, 165, 166, 167, 168, 169, 170, 171, 172, 173, 174, 175, 176, 177, 178, 179, 180, 181, 182, 183, 184, 185, 186, 187, 188, 189, 190, 191, 192, 193, 194, 195, 196, 197, 198, 199, 200, 201, 202, 203, 204, 205, 206, 207, 208, 209, 210],
      "LargestImagePixelValue": [2321, 2219, 2169, 2144, 2131, 2129, 2147, 2179, 2145, 2166, 2151, 2161, 2148, 2151, 2143, 2157, 2139, 2144, 2152, 2135, 2116, 2131, 2122, 2147, 2144, 2164, 2170, 2136, 2138, 2134, 2148, 2143, 2158, 2138, 2142, 2148, 2148, 2141, 2134, 2140, 2123, 2139, 2131, 2115, 2140, 2125, 2125, 2137, 2127, 2121, 2208, 2169, 2171, 2372, 2332, 2146, 2125, 2153, 2158, 2170, 2153, 2175, 2172, 2183, 2188, 2184, 2190, 2165, 2179, 2183, 2180, 2187, 2163, 2138, 2134, 2183, 2163, 2150, 2150, 2182, 2146, 2158, 2151, 2156, 2174, 2186, 2161, 2139, 2146, 2149, 2172, 2166, 2173, 2157, 2168, 2142, 2156, 2162, 2148, 2163, 2169, 2149, 2142, 2148, 2156, 2175, 2188, 2167, 2168, 2136, 2151, 2146, 2157, 2153, 2154, 2149, 2145, 2149, 2149, 2152, 2151, 2154, 2165, 2153, 2141, 2133, 2131, 2147, 2146, 2142, 2135, 2151, 2136, 2129, 2129, 2125, 2145, 2153, 2145, 2148, 2146, 2156, 2144, 2150, 2146, 2135, 2166, 2147, 2142, 2147, 2139, 2151, 2155, 2155, 2129, 2150, 2140, 2141, 2145, 2145, 2163, 2142, 2134, 2155, 2139, 2158, 2167, 2159, 2169, 2154, 2157, 2149, 2145, 2158, 2152, 2158, 2140, 2164, 2195, 2196, 2136, 2167, 2175, 2170, 2165, 2162, 2188, 2186, 2178, 2183, 2177, 2164, 2174, 2166, 2158, 2154, 2159, 2169, 2166, 2171, 2172, 2144, 2170, 2161, 2164, 2159, 2157, 2164, 2172, 2166],
      "WindowCenter": [828.0, 824.0, 822.0, 820.0, 819.0, 819.0, 818.0, 818.0, 817.0, 816.0, 817.0, 817.0, 818.0, 819.0, 818.0, 818.0, 818.0, 817.0, 817.0, 819.0, 818.0, 817.0, 817.0, 818.0, 818.0, 819.0, 818.0, 818.0, 818.0, 818.0, 819.0, 819.0, 818.0, 817.0, 816.0, 815.0, 816.0, 818.0, 818.0, 818.0, 817.0, 817.0, 816.0, 818.0, 818.0, 817.0, 816.0, 816.0, 816.0, 817.0, 820.0, 819.0, 823.0, 819.0, 828.0, 819.0, 817.0, 815.0, 812.0, 812.0, 812.0, 815.0, 817.0, 818.0, 818.0, 818.0, 820.0, 821.0, 821.0, 820.0, 818.0, 818.0, 818.0, 818.0, 818.0, 817.0, 817.0, 817.0, 817.0, 817.0, 818.0, 818.0, 819.0, 819.0, 819.0, 819.0, 819.0, 818.0, 818.0, 818.0, 819.0, 818.0, 818.0, 819.0, 819.0, 818.0, 818.0, 817.0, 818.0, 818.0, 818.0, 818.0, 818.0, 818.0, 817.0, 817.0, 818.0, 820.0, 821.0, 820.0, 818.0, 819.0, 820.0, 819.0, 817.0, 816.0, 817.0, 817.0, 817.0, 816.0, 816.0, 817.0, 819.0, 818.0, 817.0, 816.0, 817.0, 818.0, 818.0, 818.0, 818.0, 818.0, 819.0, 818.0, 817.0, 817.0, 816.0, 817.0, 816.0, 816.0, 816.0, 816.0, 817.0, 817.0, 818.0, 819.0, 819.0, 818.0, 819.0, 819.0, 818.0, 817.0, 817.0, 816.0, 816.0, 816.0, 816.0, 817.0, 817.0, 817.0, 817.0, 817.0, 817.0, 818.0, 816.0, 816.0, 816.0, 816.0, 817.0, 816.0, 816.0, 816.0, 817.0, 818.0, 818.0, 818.0, 817.0, 818.0, 822.0, 822.0, 821.0, 818.0, 818.0, 815.0, 812.0, 811.0, 812.0, 813.0, 814.0, 815.0, 817.0, 817.0, 817.0, 818.0, 819.0, 819.0, 820.0, 819.0, 819.0, 820.0, 820.0, 819.0, 819.0, 818.0, 819.0, 819.0, 819.0, 818.0, 818.0, 818.0],
      "WindowWidth": [1729.0, 1717.0, 1712.0, 1706.0, 1704.0, 1703.0, 1702.0, 1701.0, 1699.0, 1697.0, 1698.0, 1699.0, 1702.0, 1703.0, 1702.0, 1700.0, 1701.0, 1700.0, 1700.0, 1703.0, 1700.0, 1699.0, 1700.0, 1701.0, 1703.0, 1702.0, 1702.0, 1700.0, 1699.0, 1701.0, 1704.0, 1703.0, 1701.0, 1699.0, 1695.0, 1695.0, 1698.0, 1701.0, 1701.0, 1701.0, 1700.0, 1697.0, 1698.0, 1702.0, 1702.0, 1699.0, 1697.0, 1697.0, 1697.0, 1699.0, 1707.0, 1703.0, 1712.0, 1705.0, 1725.0, 1703.0, 1697.0, 1693.0, 1687.0, 1686.0, 1688.0, 1694.0, 1700.0, 1702.0, 1702.0, 1702.0, 1705.0, 1708.0, 1707.0, 1704.0, 1702.0, 1702.0, 1702.0, 1701.0, 1700.0, 1699.0, 1699.0, 1698.0, 1698.0, 1700.0, 1700.0, 1700.0, 1703.0, 1704.0, 1703.0, 1704.0, 1703.0, 1702.0, 1701.0, 1701.0, 1703.0, 1703.0, 1701.0, 1703.0, 1704.0, 1702.0, 1701.0, 1699.0, 1700.0, 1703.0, 1702.0, 1700.0, 1701.0, 1701.0, 1700.0, 1699.0, 1702.0, 1707.0, 1708.0, 1705.0, 1702.0, 1703.0, 1705.0, 1703.0, 1700.0, 1697.0, 1698.0, 1699.0, 1698.0, 1697.0, 1697.0, 1699.0, 1703.0, 1702.0, 1698.0, 1697.0, 1699.0, 1702.0, 1702.0, 1700.0, 1701.0, 1702.0, 1702.0, 1700.0, 1698.0, 1697.0, 1696.0, 1699.0, 1698.0, 1698.0, 1697.0, 1696.0, 1698.0, 1699.0, 1701.0, 1703.0, 1702.0, 1701.0, 1703.0, 1704.0, 1701.0, 1699.0, 1698.0, 1697.0, 1697.0, 1697.0, 1696.0, 1698.0, 1699.0, 1697.0, 1697.0, 1699.0, 1699.0, 1700.0, 1698.0, 1696.0, 1697.0, 1698.0, 1698.0, 1697.0, 1697.0, 1698.0, 1699.0, 1701.0, 1702.0, 1701.0, 1700.0, 1700.0, 1711.0, 1711.0, 1707.0, 1702.0, 1701.0, 1695.0, 1686.0, 1685.0, 1686.0, 1688.0, 1691.0, 1696.0, 1699.0, 1699.0, 1699.0, 1702.0, 1703.0, 1704.0, 1705.0, 1703.0, 1703.0, 1705.0, 1706.0, 1704.0, 1702.0, 1701.0, 1705.0, 1704.0, 1703.0, 1701.0, 1701.0, 1702.0]
    },
    "slices": {}
  }
}