{
  "AcquisitionMatrixPE": 64,
  "AcquisitionNumber": 1,
  "AcquisitionTime": "11:00:10.747500",
  "BandwidthPerPixelPhaseEncode": 30.637,
  "BaseResolution": 64,
  "BidsGuess": [
    "func",
    "_acq-epfid2_dir-AP_run-10_bold"
],
  "CoilCombinationMethod": "Sum of Squares",
  "CoilString": "C:HEA;HEP",
  "ConversionSoftware": "dcm2niix",
  "ConversionSoftwareVersion": "v1.0.20240202",
  "DerivedVendorReportedEchoSpacing": 0.000510004,
  "DeviceSerialNumber": "35119",
  "DwellTime": 3.5e-06,
  "EchoTime": 0.03,
  "EffectiveEchoSpacing": 0.000510004,
  "FlipAngle": 78,
  "HeudiconvVersion": "1.1.6",
  "ImageComments": "V",
  "ImageOrientationPatientDICOM": [0.99892, 0.0184, 0.042669, 0, 0.918262, -0.395973],
  "ImageOrientationText": "Tra>Cor(-23.3)>Sag(2.7)",
  "ImageType": [
    "ORIGINAL",
    "PRIMARY",
    "M",
    "ND",
    "MOSAIC"
],
  "ImagingFrequency": 123.251745,
  "InPlanePhaseEncodingDirectionDICOM": "COL",
  "InstitutionAddress": "Chaucer Road  15,Cambridge,UK,GB,CB2 2EF",
  "InstitutionName": "MRC-CBU",
  "MRAcquisitionType": "2D",
  "MagneticFieldStrength": 3,
  "Manufacturer": "Siemens",
  "ManufacturersModelName": "TrioTim",
  "MatrixCoilMode": "SENSE",
  "Modality": "MR",
  "NonlinearGradientCorrection": false,
  "PartialFourier": 1,
  "PatientPosition": "HFS",
  "PercentPhaseFOV": 100,
  "PercentSampling": 100,
  "PhaseEncodingDirection": "j-",
  "PhaseEncodingSteps": 64,
  "PhaseResolution": 1,
  "PixelBandwidth": 2230,
  "ProcedureStepDescription": "CBU^Neuroimaging",
  "ProtocolName": "CBU_DWEPI_BOLD210",
  "PulseSequenceDetails": "%SiemensSeq%\\ep2d_bold",
  "ReceiveCoilName": "HeadMatrix",
  "ReconMatrixPE": 64,
  "RepetitionTime": 2,
  "SAR": 0.166426,
  "ScanOptions": "FS",
  "ScanningSequence": "EP",
  "SequenceName": "*epfid2d1_64",
  "SequenceVariant": "SK",
  "SeriesDescription": "CBU_DWEPI_BOLD210",
  "SeriesNumber": 10,
  "ShimSetting": [-7736, -8651, -1976, 871, 316, 464, -140, 27],
  "SliceThickness": 3,
  "SliceTiming": [0, 1.035, 0.0625, 1.095, 0.1225, 1.1575, 0.1825, 1.2175, 0.245, 1.2775, 0.305, 1.34, 0.365, 1.4, 0.4275, 1.46, 0.4875, 1.5225, 0.5475, 1.5825, 0.61, 1.6425, 0.67, 1.705, 0.73, 1.765, 0.7925, 1.825, 0.8525, 1.8875, 0.9125, 1.9475, 0.975],
  "SoftwareVersions": "syngo MR B15",
  "SpacingBetweenSlices": 4.05,
  "StationName": "MRC35119",
  "TaskName": "faceprocessing",
  "TotalReadoutTime": 0.0321303,
  "TxRefAmp": 361.9,
  "dcmmeta_affine": [
    [-2.9967598915100098, 0.0, 0.18819226324558258, 95.24853515625],
    [-0.0551999993622303, 2.7547860145568848, -1.6019586324691772, -46.59159851074219],
    [0.12800699472427368, 1.187919020652771, 3.71494460105896, -73.54055786132812],
    [0.0, 0.0, 0.0, 1.0]
],
  "dcmmeta_reorient_transform": [
    [0.0, -1.0, 0.0, 63.0],
    [1.0, 0.0, 0.0, 0.0],
    [0.0, 0.0, 1.0, 0.0],
    [0.0, 0.0, 0.0, 1.0]
],
  "dcmmeta_shape": [64, 64, 33, 210],
  "dcmmeta_slice_dim": 2,
  "dcmmeta_version": 0.6,
  "global": {
    "const": {
      "AcquisitionMatrix": [64, 0, 0, 64],
      "AngioFlag": "N",
      "BitsAllocated": 16,
      "BitsStored": 12,
      "Columns": 384,
      "EchoNumbers": 1,
      "EchoTime": 30.0,
      "EchoTrainLength": 1,
      "FlipAngle": 78.0,
      "HighBit": 11,
      "ImageOrientationPatient": [0.99892, 0.0184, 0.042669, 0.0, 0.918262, -0.395973],
      "ImagePositionPatient": [-574.730133, -576.55768, 170.884259],
      "ImageType": [
        "ORIGINAL",
        "PRIMARY",
        "M",
        "ND",
        "MOSAIC"
],
      "ImagedNucleus": "1H",
      "ImagingFrequency": 123.251745,
      "InPlanePhaseEncodingDirection": "COL",
      "MRAcquisitionType": "2D",
      "MagneticFieldStrength": 3.0,
      "Manufacturer": "SIEMENS",
      "ManufacturerModelName": "TrioTim",
      "Modality": "MR",
      "NumberOfAverages": 1.0,
      "NumberOfPhaseEncodingSteps": 64,
      "PercentPhaseFieldOfView": 100.0,
      "PercentSampling": 100.0,
      "PerformedProcedureStepStartTime": "095737.218000",
      "PhotometricInterpretation": "MONOCHROME2",
      "PixelAspectRatio": [1, 1],
      "PixelBandwidth": 2230.0,
      "PixelRepresentation": 0,
      "PixelSpacing": [3.0, 3.0],
      "ProtocolName": "CBU_DWEPI_BOLD210",
      "RepetitionTime": 2000.0,
      "Rows": 384,
      "SAR": 0.166426,
      "SamplesPerPixel": 1,
      "ScanOptions": "FS",
      "ScanningSequence": "EP",
      "SequenceName": "*epfid2d1_64",
      "SequenceVariant": "SK",
      "SeriesDescription": "CBU_DWEPI_BOLD210",
      "SeriesNumber": 10,
      "SeriesTime": "110013.843000",
      "SliceLocation": -44.601846,
      "SliceThickness": 3.0,
      "SmallestImagePixelValue": 0,
      "SoftwareVersions": "syngo MR B15",
      "SpacingBetweenSlices": 4.05,
      "SpecificCharacterSet": "ISO_IR 100",
      "StudyID": "1",
      "StudyTime": "095737.046000",
      "TransmitCoilName": "Body",
      "VariableFlipAngleFlag": "N",
      "WindowCenterWidthExplanation": "Algo1",
      "dBdt": 0.0},
    "slices": {}
  },
  "time": {
    "samples": {
      "AcquisitionNumber": [1, 2, 3, 4, 5, 6, 7, 8, 9, 10, 11, 12, 13, 14, 15, 16, 17, 18, 19, 20, 21, 22, 23, 24, 25, 26, 27, 28, 29, 30, 31, 32, 33, 34, 35, 36, 37, 38, 39, 40, 41, 42, 43, 44, 45, 46, 47, 48, 49, 50, 51, 52, 53, 54, 55, 56, 57, 58, 59, 60, 61, 62, 63, 64, 65, 66, 67, 68, 69, 70, 71, 72, 73, 74, 75, 76, 77, 78, 79, 80, 81, 82, 83, 84, 85, 86, 87, 88, 89, 90, 91, 92, 93, 94, 95, 96, 97, 98, 99, 100, 101, 102, 103, 104, 105, 106, 107, 108, 109, 110, 111, 112, 113, 114, 115, 116, 117, 118, 119, 120, 121, 122, 123, 124, 125, 126, 127, 128, 129, 130, 131, 132, 133, 134, 135, 136, 137, 138, 139, 140, 141, 142, 143, 144, 145, 146, 147, 148, 149, 150, 151, 152, 153, 154, 155, 156, 157, 158, 159, 160, 161, 162, 163, 164, 165, 166, 167, 168, 169, 170, 171, 172, 173, 174, 175, 176, 177, 178, 179, 180, 181, 182, 183, 184, 185, 186, 187, 188, 189, 190, 191, 192, 193, 194, 195, 196, 197, 198, 199, 200, 201, 202, 203, 204, 205, 206, 207, 208, 209, 210],
      "AcquisitionTime": ["110010.747500", "110012.755000", "110014.765000", "110016.772500", "110018.780000", "110020.787500", "110022.795000", "110024.805000", "110026.812500", "110028.820000", "110030.827500", "110032.837500", "110034.845000", "110036.852500", "110038.860000", "110040.867500", "110042.877500", "110044.885000", "110046.892500", "110048.900000", "110050.907500", "110052.917500", "110054.925000", "110056.932500", "110058.940000", "110100.950000", "110102.957500", "110104.965000", "110106.972500", "110108.980000", "110110.990000", "110112.997500", "110115.005000", "110117.012500", "110119.020000", "110121.030000", "110123.037500", "110125.045000", "110127.052500", "110129.062500", "110131.070000", "110133.077500", "110135.085000", "110137.092500", "110139.102500", "110141.110000", "110143.117500", "110145.125000", "110147.132500", "110149.142500", "110151.150000", "110153.157500", "110155.165000", "110157.172500", "110159.182500", "110201.190000", "110203.197500", "110205.205000", "110207.215000", "110209.222500", "110211.230000", "110213.237500", "110215.245000", "110217.255000", "110219.262500", "110221.270000", "110223.277500", "110225.285000", "110227.295000", "110229.302500", "110231.310000", "110233.317500", "110235.327500", "110237.335000", "110239.342500", "110241.350000", "110243.357500", "110245.367500", "110247.375000", "110249.382500", "110251.390000", "110253.397500", "110255.407500", "110257.415000", "110259.422500", "110301.430000", "110303.440000", "110305.447500", "110307.455000", "110309.462500", "110311.470000", "110313.480000", "110315.487500", "110317.495000", "110319.502500", "110321.510000", "110323.520000", "110325.527500", "110327.535000", "110329.542500", "110331.552500", "110333.560000", "110335.567500", "110337.575000", "110339.582500", "110341.592500", "110343.600000", "110345.607500", "110347.615000", "110349.622500", "110351.632500", "110353.640000", "110355.647500", "110357.655000", "110359.662500", "110401.672500", "110403.680000", "110405.687500", "110407.695000", "110409.705000", "110411.712500", "110413.720000", "110415.727500", "110417.735000", "110419.745000", "110421.752500", "110423.760000", "110425.767500", "110427.775000", "110429.785000", "110431.792500", "110433.800000", "110435.807500", "110437.817500", "110439.825000", "110441.832500", "110443.840000", "110445.847500", "110447.857500", "110449.865000", "110451.872500", "110453.880000", "110455.887500", "110457.897500", "110459.905000", "110501.912500", "110503.920000", "110505.930000", "110507.937500", "110509.945000", "110511.952500", "110513.960000", "110515.970000", "110517.977500", "110519.985000", "110521.992500", "110524.000000", "110526.010000", "110528.017500", "110530.025000", "110532.032500", "110534.040000", "110536.050000", "110538.057500", "110540.065000", "110542.072500", "110544.082500", "110546.090000", "110548.097500", "110550.105000", "110552.112500", "110554.122500", "110556.130000", "110558.137500", "110600.145000", "110602.152500", "110604.162500", "110606.170000", "110608.177500", "110610.185000", "110612.195000", "110614.202500", "110616.210000", "110618.217500", "110620.225000", "110622.235000", "110624.242500", "110626.250000", "110628.257500", "110630.265000", "110632.275000", "110634.282500", "110636.290000", "110638.297500", "110640.307500", "110642.315000", "110644.322500", "110646.330000", "110648.337500", "110650.347500", "110652.355000", "110654.362500", "110656.370000", "110658.377500", "110700.387500", "110702.395000", "110704.402500", "110706.410000", "110708.417500", "110710.427500"],
      "ContentTime": ["110013.859000", "110015.843000", "110017.843000", "110019.843000", "110021.843000", "110023.843000", "110025.843000", "110027.843000", "110029.843000", "110031.843000", "110033.843000", "110035.843000", "110037.843000", "110039.843000", "110041.843000", "110043.843000", "110045.843000", "110047.843000", "110049.843000", "110051.843000", "110053.843000", "110055.843000", "110057.843000", "110059.843000", "110101.843000", "110103.843000", "110105.843000", "110107.843000", "110109.843000", "110111.843000", "110113.843000", "110115.843000", "110117.843000", "110119.843000", "110121.843000", "110123.843000", "110125.843000", "110127.843000", "110129.843000", "110131.843000", "110133.843000", "110135.843000", "110137.843000", "110139.843000", "110141.843000", "110143.843000", "110145.843000", "110147.843000", "110149.843000", "110151.843000", "110153.843000", "110155.843000", "110157.843000", "110159.843000", "110201.843000", "110203.843000", "110205.843000", "110207.843000", "110209.843000", "110211.843000", "110213.843000", "110215.843000", "110217.843000", "110219.843000", "110221.843000", "110223.843000", "110225.843000", "110227.843000", "110229.843000", "110231.843000", "110233.843000", "110235.843000", "110237.843000", "110239.843000", "110241.843000", "110243.843000", "110245.843000", "110247.843000", "110249.843000", "110251.843000", "110253.843000", "110255.843000", "110257.843000", "110259.843000", "110301.843000", "110303.843000", "110305.843000", "110307.843000", "110309.843000", "110311.843000", "110313.843000", "110315.843000", "110317.843000", "110319.843000", "110321.843000", "110323.843000", "110325.843000", "110327.843000", "110329.843000", "110331.843000", "110333.843000", "110335.843000", "110337.843000", "110339.843000", "110341.843000", "110343.843000", "110345.843000", "110347.843000", "110349.843000", "110351.843000", "110353.843000", "110355.843000", "110357.843000", "110359.843000", "110401.843000", "110403.843000", "110405.843000", "110407.843000", "110409.843000", "110411.843000", "110413.843000", "110415.843000", "110417.843000", "110419.843000", "110421.843000", "110423.843000", "110425.843000", "110427.843000", "110429.843000", "110431.843000", "110433.843000", "110435.843000", "110437.843000", "110439.843000", "110441.843000", "110443.843000", "110445.843000", "110447.843000", "110449.843000", "110451.843000", "110453.843000", "110455.843000", "110457.843000", "110459.843000", "110501.843000", "110503.843000", "110505.843000", "110507.843000", "110509.843000", "110511.843000", "110513.843000", "110515.843000", "110517.843000", "110519.843000", "110521.843000", "110523.843000", "110525.843000", "110527.843000", "110529.843000", "110531.843000", "110533.843000", "110535.843000", "110537.843000", "110539.843000", "110541.843000", "110543.843000", "110545.843000", "110547.843000", "110549.843000", "110551.843000", "110553.843000", "110555.843000", "110557.843000", "110559.843000", "110601.843000", "110603.843000", "110605.843000", "110607.843000", "110609.843000", "110611.843000", "110613.843000", "110615.843000", "110617.843000", "110619.843000", "110621.843000", "110623.843000", "110625.843000", "110627.843000", "110629.843000", "110631.843000", "110633.843000", "110635.843000", "110637.843000", "110639.843000", "110641.843000", "110643.843000", "110645.843000", "110647.843000", "110649.843000", "110651.843000", "110653.843000", "110655.843000", "110657.843000", "110659.843000", "110701.843000", "110703.843000", "110705.843000", "110707.843000", "110709.843000", "110711.453000"],
      "InstanceCreationTime": ["110013.859000", "110015.843000", "110017.843000", "110019.843000", "110021.843000", "110023.843000", "110025.843000", "110027.843000", "110029.843000", "110031.843000", "110033.843000", "110035.843000", "110037.843000", "110039.843000", "110041.843000", "110043.843000", "110045.843000", "110047.843000", "110049.843000", "110051.843000", "110053.843000", "110055.843000", "110057.843000", "110059.843000", "110101.843000", "110103.843000", "110105.843000", "110107.843000", "110109.843000", "110111.843000", "110113.843000", "110115.843000", "110117.843000", "110119.843000", "110121.843000", "110123.843000", "110125.843000", "110127.843000", "110129.843000", "110131.843000", "110133.843000", "110135.843000", "110137.843000", "110139.843000", "110141.843000", "110143.843000", "110145.843000", "110147.843000", "110149.843000", "110151.843000", "110153.843000", "110155.843000", "110157.843000", "110159.843000", "110201.843000", "110203.843000", "110205.843000", "110207.843000", "110209.843000", "110211.843000", "110213.843000", "110215.843000", "110217.843000", "110219.843000", "110221.843000", "110223.843000", "110225.843000", "110227.843000", "110229.843000", "110231.843000", "110233.843000", "110235.843000", "110237.843000", "110239.843000", "110241.843000", "110243.843000", "110245.843000", "110247.843000", "110249.843000", "110251.843000", "110253.843000", "110255.843000", "110257.843000", "110259.843000", "110301.843000", "110303.843000", "110305.843000", "110307.843000", "110309.843000", "110311.843000", "110313.843000", "110315.843000", "110317.843000", "110319.843000", "110321.843000", "110323.843000", "110325.843000", "110327.843000", "110329.843000", "110331.843000", "110333.843000", "110335.843000", "110337.843000", "110339.843000", "110341.843000", "110343.843000", "110345.843000", "110347.843000", "110349.843000", "110351.843000", "110353.843000", "110355.843000", "110357.843000", "110359.843000", "110401.843000", "110403.843000", "110405.843000", "110407.843000", "110409.843000", "110411.843000", "110413.843000", "110415.843000", "110417.843000", "110419.843000", "110421.843000", "110423.843000", "110425.843000", "110427.843000", "110429.843000", "110431.843000", "110433.843000", "110435.843000", "110437.843000", "110439.843000", "110441.843000", "110443.843000", "110445.843000", "110447.843000", "110449.843000", "110451.843000", "110453.843000", "110455.843000", "110457.843000", "110459.843000", "110501.843000", "110503.843000", "110505.843000", "110507.843000", "110509.843000", "110511.843000", "110513.843000", "110515.843000", "110517.843000", "110519.843000", "110521.843000", "110523.843000", "110525.843000", "110527.843000", "110529.843000", "110531.843000", "110533.843000", "110535.843000", "110537.843000", "110539.843000", "110541.843000", "110543.843000", "110545.843000", "110547.843000", "110549.843000", "110551.843000", "110553.843000", "110555.843000", "110557.843000", "110559.843000", "110601.843000", "110603.843000", "110605.843000", "110607.843000", "110609.843000", "110611.843000", "110613.843000", "110615.843000", "110617.843000", "110619.843000", "110621.843000", "110623.843000", "110625.843000", "110627.843000", "110629.843000", "110631.843000", "110633.843000", "110635.843000", "110637.843000", "110639.843000", "110641.843000", "110643.843000", "110645.843000", "110647.843000", "110649.843000", "110651.843000", "110653.843000", "110655.843000", "110657.843000", "110659.843000", "110701.843000", "110703.843000", "110705.843000", "110707.843000", "110709.843000", "110711.453000"],
      "InstanceNumber": [1, 2, 3, 4, 5, 6, 7, 8, 9, 10, 11, 12, 13, 14, 15, 16, 17, 18, 19, 20, 21, 22, 23, 24, 25, 26, 27, 28, 29, 30, 31, 32, 33, 34, 35, 36, 37, 38, 39, 40, 41, 42, 43, 44, 45, 46, 47, 48, 49, 50, 51, 52, 53, 54, 55, 56, 57, 58, 59, 60, 61, 62, 63, 64, 65, 66, 67, 68, 69, 70, 71, 72, 73, 74, 75, 76, 77, 78, 79, 80, 81, 82, 83, 84, 85, 86, 87, 88, 89, 90, 91, 92, 93, 94, 95, 96, 97, 98, 99, 100, 101, 102, 103, 104, 105, 106, 107, 108, 109, 110, 111, 112, 113, 114, 115, 116, 117, 118, 119, 120, 121, 122, 123, 124, 125, 126, 127, 128, 129, 130, 131, 132, 133, 134, 135, 136, 137, 138, 139, 140, 141, 142, 143, 144, 145, 146, 147, 148, 149, 150, 151, 152, 153, 154, 155, 156, 157, 158, 159, 160, 161, 162, 163, 164, 165, 166, 167, 168, 169, 170, 171, 172, 173, 174, 175, 176, 177, 178, 179, 180, 181, 182, 183, 184, 185, 186, 187, 188, 189, 190, 191, 192, 193, 194, 195, 196, 197, 198, 199, 200, 201, 202, 203, 204, 205, 206, 207, 208, 209, 210],
      "LargestImagePixelValue": [2562, 2287, 2253, 2195, 2185, 2183, 2173, 2184, 2187, 2190, 2207, 2175, 2188, 2186, 2188, 2180, 2194, 2199, 2196, 2207, 2171, 2173, 2183, 2189, 2198, 2186, 2175, 2187, 2187, 2197, 2202, 2174, 2162, 2184, 2192, 2205, 2201, 2179, 2188, 2190, 2194, 2193, 2188, 2188, 2198, 2213, 2210, 2200, 2222, 2223, 2208, 2208, 2208, 2205, 2226, 2217, 2204, 2201, 2190, 2207, 2205, 2204, 2181, 2180, 2185, 2185, 2174, 2179, 2203, 2203, 2184, 2224, 2230, 2214, 2214, 2223, 2203, 2218, 2198, 2190, 2207, 2210, 2198, 2218, 2220, 2218, 2194, 2196, 2186, 2227, 2201, 2223, 2211, 2210, 2217, 2209, 2185, 2204, 2211, 2201, 2216, 2196, 2223, 2189, 2187, 2202, 2188, 2166, 2193, 2179, 2144, 2174, 2157, 2167, 2172, 2184, 2187, 2187, 2184, 2177, 2162, 2164, 2165, 2195, 2181, 2196, 2181, 2180, 2181, 2170, 2173, 2187, 2193, 2202, 2184, 2165, 2186, 2170, 2196, 2193, 2177, 2181, 2169, 2161, 2179, 2184, 2200, 2175, 2205, 2169, 2172, 2181, 2189, 2187, 2183, 2174, 2172, 2180, 2167, 2197, 2185, 2177, 2185, 2190, 2179, 2184, 2182, 2194, 2197, 2183, 2200, 2198, 2204, 2200, 2185, 2178, 2180, 2188, 2174, 2186, 2155, 2179, 2183, 2173, 2165, 2199, 2177, 2180, 2198, 2166, 2173, 2171, 2168, 2179, 2180, 2181, 2180, 2185, 2177, 2206, 2190, 2198, 2199, 2185, 2195, 2199, 2188, 2179, 2177, 2165],
      "WindowCenter": [835.0, 827.0, 825.0, 823.0, 820.0, 816.0, 814.0, 815.0, 817.0, 819.0, 818.0, 819.0, 820.0, 821.0, 822.0, 821.0, 821.0, 821.0, 821.0, 821.0, 820.0, 819.0, 819.0, 820.0, 820.0, 820.0, 820.0, 822.0, 822.0, 825.0, 823.0, 822.0, 821.0, 821.0, 823.0, 822.0, 821.0, 820.0, 820.0, 820.0, 820.0, 819.0, 818.0, 818.0, 818.0, 818.0, 819.0, 819.0, 820.0, 820.0, 821.0, 821.0, 820.0, 821.0, 821.0, 822.0, 821.0, 820.0, 820.0, 821.0, 821.0, 822.0, 822.0, 821.0, 821.0, 821.0, 821.0, 820.0, 820.0, 821.0, 821.0, 826.0, 820.0, 822.0, 821.0, 821.0, 820.0, 819.0, 819.0, 820.0, 821.0, 821.0, 821.0, 821.0, 821.0, 822.0, 821.0, 821.0, 820.0, 820.0, 820.0, 821.0, 821.0, 821.0, 820.0, 820.0, 819.0, 818.0, 819.0, 820.0, 821.0, 821.0, 822.0, 823.0, 823.0, 822.0, 819.0, 821.0, 823.0, 824.0, 824.0, 823.0, 823.0, 822.0, 821.0, 821.0, 819.0, 819.0, 819.0, 820.0, 820.0, 820.0, 820.0, 820.0, 820.0, 822.0, 822.0, 821.0, 820.0, 820.0, 821.0, 822.0, 822.0, 821.0, 821.0, 821.0, 821.0, 821.0, 821.0, 821.0, 820.0, 820.0, 821.0, 820.0, 819.0, 819.0, 820.0, 821.0, 822.0, 822.0, 821.0, 820.0, 822.0, 821.0, 822.0, 822.0, 821.0, 821.0, 821.0, 821.0, 821.0, 823.0, 821.0, 821.0, 822.0, 823.0, 824.0, 823.0, 822.0, 822.0, 823.0, 823.0, 823.0, 823.0, 823.0, 822.0, 821.0, 821.0, 822.0, 822.0, 821.0, 821.0, 822.0, 822.0, 821.0, 821.0, 822.0, 824.0, 824.0, 822.0, 822.0, 823.0, 822.0, 822.0, 821.0, 821.0, 822.0, 822.0, 821.0, 821.0, 821.0, 822.0, 822.0, 821.0, 821.0, 821.0, 822.0, 822.0, 822.0, 822.0],
      "WindowWidth": [1745.0, 1724.0, 1718.0, 1713.0, 1705.0, 1695.0, 1691.0, 1693.0, 1699.0, 1702.0, 1702.0, 1703.0, 1706.0, 1709.0, 1710.0, 1708.0, 1707.0, 1708.0, 1708.0, 1709.0, 1706.0, 1703.0, 1703.0, 1705.0, 1706.0, 1706.0, 1707.0, 1711.0, 1711.0, 1718.0, 1713.0, 1709.0, 1706.0, 1709.0, 1712.0, 1711.0, 1707.0, 1706.0, 1706.0, 1705.0, 1705.0, 1703.0, 1702.0, 1701.0, 1702.0, 1702.0, 1703.0, 1703.0, 1706.0, 1707.0, 1707.0, 1708.0, 1707.0, 1708.0, 1709.0, 1711.0, 1710.0, 1707.0, 1706.0, 1708.0, 1710.0, 1711.0, 1710.0, 1708.0, 1709.0, 1710.0, 1707.0, 1706.0, 1706.0, 1708.0, 1709.0, 1719.0, 1706.0, 1711.0, 1709.0, 1708.0, 1706.0, 1704.0, 1704.0, 1705.0, 1709.0, 1709.0, 1707.0, 1707.0, 1709.0, 1709.0, 1709.0, 1708.0, 1706.0, 1706.0, 1705.0, 1707.0, 1709.0, 1708.0, 1707.0, 1706.0, 1703.0, 1701.0, 1703.0, 1706.0, 1710.0, 1709.0, 1711.0, 1713.0, 1712.0, 1710.0, 1703.0, 1707.0, 1713.0, 1715.0, 1714.0, 1713.0, 1711.0, 1711.0, 1709.0, 1707.0, 1704.0, 1703.0, 1704.0, 1705.0, 1705.0, 1705.0, 1706.0, 1706.0, 1706.0, 1713.0, 1710.0, 1709.0, 1707.0, 1706.0, 1708.0, 1710.0, 1711.0, 1709.0, 1707.0, 1707.0, 1709.0, 1708.0, 1708.0, 1707.0, 1705.0, 1706.0, 1708.0, 1705.0, 1704.0, 1704.0, 1706.0, 1710.0, 1711.0, 1710.0, 1708.0, 1707.0, 1710.0, 1709.0, 1712.0, 1710.0, 1708.0, 1707.0, 1708.0, 1708.0, 1709.0, 1712.0, 1709.0, 1707.0, 1710.0, 1714.0, 1714.0, 1712.0, 1710.0, 1711.0, 1712.0, 1712.0, 1713.0, 1713.0, 1713.0, 1711.0, 1709.0, 1709.0, 1710.0, 1710.0, 1708.0, 1709.0, 1710.0, 1710.0, 1709.0, 1709.0, 1710.0, 1716.0, 1716.0, 1710.0, 1711.0, 1712.0, 1712.0, 1710.0, 1709.0, 1709.0, 1711.0, 1710.0, 1708.0, 1707.0, 1707.0, 1710.0, 1711.0, 1709.0, 1708.0, 1708.0, 1710.0, 1711.0, 1710.0, 1711.0]
    },
    "slices": {}
  }
}