{
  "AcquisitionMatrixPE": 64,
  "AcquisitionNumber": 1,
  "AcquisitionTime": "10:50:1.200000",
  "BandwidthPerPixelPhaseEncode": 30.637,
  "BaseResolution": 64,
  "BidsGuess": [
    "func",
    "_acq-epfid2_dir-AP_run-10_bold"
],
  "CoilCombinationMethod": "Sum of Squares",
  "CoilString": "C:HEA;HEP",
  "ConversionSoftware": "dcm2niix",
  "ConversionSoftwareVersion": "v1.0.20240202",
  "DerivedVendorReportedEchoSpacing": 0.000510004,
  "DeviceSerialNumber": "35119",
  "DwellTime": 3.5e-06,
  "EchoTime": 0.03,
  "EffectiveEchoSpacing": 0.000510004,
  "FlipAngle": 78,
  "HeudiconvVersion": "1.1.6",
  "ImageComments": "V",
  "ImageOrientationPatientDICOM": [1, 0, 0, 0, 0.864275, -0.50302],
  "ImageOrientationText": "Tra>Cor(-30.2)",
  "ImageType": [
    "ORIGINAL",
    "PRIMARY",
    "M",
    "ND",
    "MOSAIC"
],
  "ImagingFrequency": 123.251842,
  "InPlanePhaseEncodingDirectionDICOM": "COL",
  "InstitutionAddress": "Chaucer Road  15,Cambridge,UK,GB,CB2 2EF",
  "InstitutionName": "MRC-CBU",
  "MRAcquisitionType": "2D",
  "MagneticFieldStrength": 3,
  "Manufacturer": "Siemens",
  "ManufacturersModelName": "TrioTim",
  "MatrixCoilMode": "SENSE",
  "Modality": "MR",
  "NonlinearGradientCorrection": false,
  "PartialFourier": 1,
  "PatientPosition": "HFS",
  "PercentPhaseFOV": 100,
  "PercentSampling": 100,
  "PhaseEncodingDirection": "j-",
  "PhaseEncodingSteps": 64,
  "PhaseResolution": 1,
  "PixelBandwidth": 2230,
  "ProcedureStepDescription": "CBU^Neuroimaging",
  "ProtocolName": "CBU_DWEPI_BOLD210",
  "PulseSequenceDetails": "%SiemensSeq%\\ep2d_bold",
  "ReceiveCoilName": "HeadMatrix",
  "ReconMatrixPE": 64,
  "RepetitionTime": 2,
  "SAR": 0.14732,
  "ScanOptions": "FS",
  "ScanningSequence": "EP",
  "SequenceName": "*epfid2d1_64",
  "SequenceVariant": "SK",
  "SeriesDescription": "CBU_DWEPI_BOLD210",
  "SeriesNumber": 10,
  "ShimSetting": [-7826, -8700, -2142, 684, 117, 328, -67, 52],
  "SliceThickness": 3,
  "SliceTiming": [0, 1.035, 0.06, 1.095, 0.1225, 1.155, 0.1825, 1.2175, 0.2425, 1.2775, 0.305, 1.3375, 0.365, 1.4, 0.425, 1.46, 0.4875, 1.52, 0.5475, 1.5825, 0.6075, 1.6425, 0.67, 1.7025, 0.73, 1.765, 0.79, 1.825, 0.8525, 1.885, 0.9125, 1.9475, 0.9725],
  "SoftwareVersions": "syngo MR B15",
  "SpacingBetweenSlices": 3.75,
  "StationName": "MRC35119",
  "TaskName": "faceprocessing",
  "TotalReadoutTime": 0.0321303,
  "TxRefAmp": 306.874,
  "dcmmeta_affine": [
    [-3.0, 0.0, 0.0, 95.5],
    [0.0, 2.592824935913086, -1.8863250017166138, -48.33693313598633],
    [0.0, 1.509060025215149, 3.2410311698913574, -90.01751708984375],
    [0.0, 0.0, 0.0, 1.0]
],
  "dcmmeta_reorient_transform": [
    [0.0, -1.0, 0.0, 63.0],
    [1.0, 0.0, 0.0, 0.0],
    [0.0, 0.0, 1.0, 0.0],
    [0.0, 0.0, 0.0, 1.0]
],
  "dcmmeta_shape": [64, 64, 33, 210],
  "dcmmeta_slice_dim": 2,
  "dcmmeta_version": 0.6,
  "global": {
    "const": {
      "AcquisitionMatrix": [64, 0, 0, 64],
      "AngioFlag": "N",
      "BitsAllocated": 16,
      "BitsStored": 12,
      "Columns": 384,
      "EchoNumbers": 1,
      "EchoTime": 30.0,
      "EchoTrainLength": 1,
      "FlipAngle": 78.0,
      "HighBit": 11,
      "ImageOrientationPatient": [1.0, 0.0, 0.0, 0.0, 0.864275, -0.50302],
      "ImagePositionPatient": [-575.5, -529.863043, 246.50286],
      "ImageType": [
        "ORIGINAL",
        "PRIMARY",
        "M",
        "ND",
        "MOSAIC"
],
      "ImagedNucleus": "1H",
      "ImagingFrequency": 123.251842,
      "InPlanePhaseEncodingDirection": "COL",
      "MRAcquisitionType": "2D",
      "MagneticFieldStrength": 3.0,
      "Manufacturer": "SIEMENS",
      "ManufacturerModelName": "TrioTim",
      "Modality": "MR",
      "NumberOfAverages": 1.0,
      "NumberOfPhaseEncodingSteps": 64,
      "PercentPhaseFieldOfView": 100.0,
      "PercentSampling": 100.0,
      "PerformedProcedureStepStartTime": "094055.859000",
      "PhotometricInterpretation": "MONOCHROME2",
      "PixelAspectRatio": [1, 1],
      "PixelBandwidth": 2230.0,
      "PixelRepresentation": 0,
      "PixelSpacing": [3.0, 3.0],
      "ProtocolName": "CBU_DWEPI_BOLD210",
      "RepetitionTime": 2000.0,
      "Rows": 384,
      "SAR": 0.14732,
      "SamplesPerPixel": 1,
      "ScanOptions": "FS",
      "ScanningSequence": "EP",
      "SequenceName": "*epfid2d1_64",
      "SequenceVariant": "SK",
      "SeriesDescription": "CBU_DWEPI_BOLD210",
      "SeriesNumber": 10,
      "SeriesTime": "105005.546000",
      "SliceLocation": -53.485474,
      "SliceThickness": 3.0,
      "SmallestImagePixelValue": 0,
      "SoftwareVersions": "syngo MR B15",
      "SpacingBetweenSlices": 3.75,
      "SpecificCharacterSet": "ISO_IR 100",
      "StudyID": "1",
      "StudyTime": "093537.062000",
      "TransmitCoilName": "Body",
      "VariableFlipAngleFlag": "N",
      "WindowCenterWidthExplanation": "Algo1",
      "dBdt": 0.0},
    "slices": {}
  },
  "time": {
    "samples": {
      "AcquisitionNumber": [1, 2, 3, 4, 5, 6, 7, 8, 9, 10, 11, 12, 13, 14, 15, 16, 17, 18, 19, 20, 21, 22, 23, 24, 25, 26, 27, 28, 29, 30, 31, 32, 33, 34, 35, 36, 37, 38, 39, 40, 41, 42, 43, 44, 45, 46, 47, 48, 49, 50, 51, 52, 53, 54, 55, 56, 57, 58, 59, 60, 61, 62, 63, 64, 65, 66, 67, 68, 69, 70, 71, 72, 73, 74, 75, 76, 77, 78, 79, 80, 81, 82, 83, 84, 85, 86, 87, 88, 89, 90, 91, 92, 93, 94, 95, 96, 97, 98, 99, 100, 101, 102, 103, 104, 105, 106, 107, 108, 109, 110, 111, 112, 113, 114, 115, 116, 117, 118, 119, 120, 121, 122, 123, 124, 125, 126, 127, 128, 129, 130, 131, 132, 133, 134, 135, 136, 137, 138, 139, 140, 141, 142, 143, 144, 145, 146, 147, 148, 149, 150, 151, 152, 153, 154, 155, 156, 157, 158, 159, 160, 161, 162, 163, 164, 165, 166, 167, 168, 169, 170, 171, 172, 173, 174, 175, 176, 177, 178, 179, 180, 181, 182, 183, 184, 185, 186, 187, 188, 189, 190, 191, 192, 193, 194, 195, 196, 197, 198, 199, 200, 201, 202, 203, 204, 205, 206, 207, 208, 209, 210],
      "AcquisitionTime": ["105001.200000", "105003.207500", "105005.217500", "105007.225000", "105009.232500", "105011.240000", "105013.247500", "105015.257500", "105017.265000", "105019.272500", "105021.280000", "105023.287500", "105025.297500", "105027.305000", "105029.312500", "105031.320000", "105033.330000", "105035.337500", "105037.345000", "105039.352500", "105041.360000", "105043.370000", "105045.377500", "105047.385000", "105049.392500", "105051.400000", "105053.410000", "105055.417500", "105057.425000", "105059.432500", "105101.440000", "105103.450000", "105105.457500", "105107.465000", "105109.472500", "105111.482500", "105113.490000", "105115.497500", "105117.505000", "105119.512500", "105121.522500", "105123.530000", "105125.537500", "105127.545000", "105129.552500", "105131.562500", "105133.570000", "105135.577500", "105137.585000", "105139.595000", "105141.602500", "105143.610000", "105145.617500", "105147.625000", "105149.635000", "105151.642500", "105153.650000", "105155.657500", "105157.665000", "105159.675000", "105201.682500", "105203.690000", "105205.697500", "105207.707500", "105209.715000", "105211.722500", "105213.730000", "105215.737500", "105217.747500", "105219.755000", "105221.762500", "105223.770000", "105225.777500", "105227.787500", "105229.795000", "105231.802500", "105233.810000", "105235.817500", "105237.827500", "105239.835000", "105241.842500", "105243.850000", "105245.860000", "105247.867500", "105249.875000", "105251.882500", "105253.890000", "105255.900000", "105257.907500", "105259.915000", "105301.922500", "105303.930000", "105305.940000", "105307.947500", "105309.955000", "105311.962500", "105313.972500", "105315.980000", "105317.987500", "105319.995000", "105322.002500", "105324.012500", "105326.020000", "105328.027500", "105330.035000", "105332.042500", "105334.052500", "105336.060000", "105338.067500", "105340.075000", "105342.085000", "105344.092500", "105346.100000", "105348.107500", "105350.115000", "105352.125000", "105354.132500", "105356.140000", "105358.147500", "105400.155000", "105402.165000", "105404.172500", "105406.180000", "105408.187500", "105410.195000", "105412.205000", "105414.212500", "105416.220000", "105418.227500", "105420.237500", "105422.245000", "105424.252500", "105426.260000", "105428.267500", "105430.277500", "105432.285000", "105434.292500", "105436.300000", "105438.307500", "105440.317500", "105442.325000", "105444.332500", "105446.340000", "105448.350000", "105450.357500", "105452.365000", "105454.372500", "105456.380000", "105458.390000", "105500.397500", "105502.405000", "105504.412500", "105506.420000", "105508.430000", "105510.437500", "105512.445000", "105514.452500", "105516.462500", "105518.470000", "105520.477500", "105522.485000", "105524.492500", "105526.502500", "105528.510000", "105530.517500", "105532.525000", "105534.532500", "105536.542500", "105538.550000", "105540.557500", "105542.565000", "105544.572500", "105546.582500", "105548.590000", "105550.597500", "105552.605000", "105554.615000", "105556.622500", "105558.630000", "105600.637500", "105602.645000", "105604.655000", "105606.662500", "105608.670000", "105610.677500", "105612.685000", "105614.695000", "105616.702500", "105618.710000", "105620.717500", "105622.727500", "105624.735000", "105626.742500", "105628.750000", "105630.757500", "105632.767500", "105634.775000", "105636.782500", "105638.790000", "105640.797500", "105642.807500", "105644.815000", "105646.822500", "105648.830000", "105650.840000", "105652.847500", "105654.855000", "105656.862500", "105658.870000", "105700.880000"],
      "ContentTime": ["105005.546000", "105007.046000", "105009.046000", "105011.046000", "105013.046000", "105015.046000", "105017.046000", "105019.046000", "105021.546000", "105023.046000", "105025.546000", "105027.046000", "105029.046000", "105031.046000", "105033.046000", "105035.046000", "105037.046000", "105039.046000", "105041.046000", "105043.046000", "105045.046000", "105047.046000", "105049.046000", "105051.546000", "105053.546000", "105055.046000", "105057.046000", "105059.046000", "105101.046000", "105103.046000", "105105.046000", "105107.046000", "105109.046000", "105111.046000", "105113.046000", "105115.046000", "105117.046000", "105119.046000", "105121.046000", "105123.046000", "105125.546000", "105127.046000", "105129.046000", "105131.046000", "105133.046000", "105135.046000", "105137.046000", "105139.046000", "105141.046000", "105143.046000", "105145.046000", "105147.046000", "105149.046000", "105151.046000", "105153.046000", "105155.046000", "105157.046000", "105159.046000", "105201.046000", "105203.046000", "105205.046000", "105207.046000", "105209.046000", "105211.046000", "105213.046000", "105215.046000", "105217.046000", "105219.046000", "105221.046000", "105223.546000", "105225.046000", "105227.046000", "105229.046000", "105231.546000", "105233.046000", "105235.046000", "105237.546000", "105239.046000", "105241.046000", "105243.046000", "105245.546000", "105247.546000", "105249.046000", "105251.046000", "105253.046000", "105255.046000", "105257.046000", "105259.046000", "105301.546000", "105303.046000", "105305.046000", "105307.046000", "105309.046000", "105311.546000", "105313.046000", "105315.046000", "105317.046000", "105319.046000", "105321.046000", "105323.046000", "105325.046000", "105327.046000", "105329.046000", "105331.546000", "105333.046000", "105335.046000", "105337.046000", "105339.046000", "105341.046000", "105343.046000", "105345.046000", "105347.046000", "105349.046000", "105351.046000", "105353.046000", "105355.046000", "105357.046000", "105359.046000", "105401.046000", "105403.546000", "105405.046000", "105407.046000", "105409.046000", "105411.546000", "105413.046000", "105415.046000", "105417.046000", "105419.046000", "105421.046000", "105423.046000", "105425.046000", "105427.546000", "105429.046000", "105431.046000", "105433.046000", "105435.546000", "105437.046000", "105439.046000", "105441.046000", "105443.046000", "105445.546000", "105447.046000", "105449.046000", "105451.046000", "105453.046000", "105455.046000", "105457.046000", "105459.046000", "105501.046000", "105503.046000", "105505.046000", "105507.046000", "105509.046000", "105511.046000", "105513.046000", "105515.046000", "105517.046000", "105519.546000", "105521.046000", "105523.046000", "105525.546000", "105527.046000", "105529.046000", "105531.046000", "105533.046000", "105535.046000", "105537.546000", "105539.546000", "105541.046000", "105543.046000", "105545.046000", "105547.046000", "105549.046000", "105551.046000", "105553.046000", "105555.046000", "105557.046000", "105559.046000", "105601.046000", "105603.046000", "105605.046000", "105607.546000", "105609.046000", "105611.046000", "105613.546000", "105615.046000", "105617.046000", "105619.046000", "105621.546000", "105623.546000", "105625.046000", "105627.046000", "105629.046000", "105631.546000", "105633.046000", "105635.046000", "105637.046000", "105639.046000", "105641.046000", "105643.046000", "105645.546000", "105647.046000", "105649.046000", "105651.546000", "105653.046000", "105655.046000", "105657.046000", "105659.046000", "105701.046000", "105703.046000"],
      "InstanceCreationTime": ["105005.546000", "105007.046000", "105009.046000", "105011.046000", "105013.046000", "105015.046000", "105017.046000", "105019.046000", "105021.546000", "105023.046000", "105025.546000", "105027.046000", "105029.046000", "105031.046000", "105033.046000", "105035.046000", "105037.046000", "105039.046000", "105041.046000", "105043.046000", "105045.046000", "105047.046000", "105049.046000", "105051.546000", "105053.546000", "105055.046000", "105057.046000", "105059.046000", "105101.046000", "105103.046000", "105105.046000", "105107.046000", "105109.046000", "105111.046000", "105113.046000", "105115.046000", "105117.046000", "105119.046000", "105121.046000", "105123.046000", "105125.546000", "105127.046000", "105129.046000", "105131.046000", "105133.046000", "105135.046000", "105137.046000", "105139.046000", "105141.046000", "105143.046000", "105145.046000", "105147.046000", "105149.046000", "105151.046000", "105153.046000", "105155.046000", "105157.046000", "105159.046000", "105201.046000", "105203.046000", "105205.046000", "105207.046000", "105209.046000", "105211.046000", "105213.046000", "105215.046000", "105217.046000", "105219.046000", "105221.046000", "105223.546000", "105225.046000", "105227.046000", "105229.046000", "105231.546000", "105233.046000", "105235.046000", "105237.546000", "105239.046000", "105241.046000", "105243.046000", "105245.546000", "105247.546000", "105249.046000", "105251.046000", "105253.046000", "105255.046000", "105257.046000", "105259.046000", "105301.546000", "105303.046000", "105305.046000", "105307.046000", "105309.046000", "105311.546000", "105313.046000", "105315.046000", "105317.046000", "105319.046000", "105321.046000", "105323.046000", "105325.046000", "105327.046000", "105329.046000", "105331.546000", "105333.046000", "105335.046000", "105337.046000", "105339.046000", "105341.046000", "105343.046000", "105345.046000", "105347.046000", "105349.046000", "105351.046000", "105353.046000", "105355.046000", "105357.046000", "105359.046000", "105401.046000", "105403.546000", "105405.046000", "105407.046000", "105409.046000", "105411.546000", "105413.046000", "105415.046000", "105417.046000", "105419.046000", "105421.046000", "105423.046000", "105425.046000", "105427.546000", "105429.046000", "105431.046000", "105433.046000", "105435.546000", "105437.046000", "105439.046000", "105441.046000", "105443.046000", "105445.546000", "105447.046000", "105449.046000", "105451.046000", "105453.046000", "105455.046000", "105457.046000", "105459.046000", "105501.046000", "105503.046000", "105505.046000", "105507.046000", "105509.046000", "105511.046000", "105513.046000", "105515.046000", "105517.046000", "105519.546000", "105521.046000", "105523.046000", "105525.546000", "105527.046000", "105529.046000", "105531.046000", "105533.046000", "105535.046000", "105537.546000", "105539.546000", "105541.046000", "105543.046000", "105545.046000", "105547.046000", "105549.046000", "105551.046000", "105553.046000", "105555.046000", "105557.046000", "105559.046000", "105601.046000", "105603.046000", "105605.046000", "105607.546000", "105609.046000", "105611.046000", "105613.546000", "105615.046000", "105617.046000", "105619.046000", "105621.546000", "105623.546000", "105625.046000", "105627.046000", "105629.046000", "105631.546000", "105633.046000", "105635.046000", "105637.046000", "105639.046000", "105641.046000", "105643.046000", "105645.546000", "105647.046000", "105649.046000", "105651.546000", "105653.046000", "105655.046000", "105657.046000", "105659.046000", "105701.046000", "105703.046000"],
      "InstanceNumber": [1, 2, 3, 4, 5, 6, 7, 8, 9, 10, 11, 12, 13, 14, 15, 16, 17, 18, 19, 20, 21, 22, 23, 24, 25, 26, 27, 28, 29, 30, 31, 32, 33, 34, 35, 36, 37, 38, 39, 40, 41, 42, 43, 44, 45, 46, 47, 48, 49, 50, 51, 52, 53, 54, 55, 56, 57, 58, 59, 60, 61, 62, 63, 64, 65, 66, 67, 68, 69, 70, 71, 72, 73, 74, 75, 76, 77, 78, 79, 80, 81, 82, 83, 84, 85, 86, 87, 88, 89, 90, 91, 92, 93, 94, 95, 96, 97, 98, 99, 100, 101, 102, 103, 104, 105, 106, 107, 108, 109, 110, 111, 112, 113, 114, 115, 116, 117, 118, 119, 120, 121, 122, 123, 124, 125, 126, 127, 128, 129, 130, 131, 132, 133, 134, 135, 136, 137, 138, 139, 140, 141, 142, 143, 144, 145, 146, 147, 148, 149, 150, 151, 152, 153, 154, 155, 156, 157, 158, 159, 160, 161, 162, 163, 164, 165, 166, 167, 168, 169, 170, 171, 172, 173, 174, 175, 176, 177, 178, 179, 180, 181, 182, 183, 184, 185, 186, 187, 188, 189, 190, 191, 192, 193, 194, 195, 196, 197, 198, 199, 200, 201, 202, 203, 204, 205, 206, 207, 208, 209, 210],
      "LargestImagePixelValue": [1842, 1776, 1751, 1728, 1731, 1733, 1739, 1710, 1728, 1715, 1729, 1733, 1728, 1725, 1722, 1731, 1724, 1731, 1728, 1725, 1725, 1740, 1712, 1740, 1727, 1732, 1736, 1732, 1718, 1734, 1730, 1743, 1724, 1723, 1717, 1728, 1724, 1717, 1708, 1718, 1712, 1721, 1725, 1713, 1717, 1746, 1717, 1727, 1722, 1726, 1734, 1719, 1746, 1772, 1728, 1722, 1725, 1740, 1724, 1731, 1715, 1731, 1724, 1729, 1726, 1717, 1728, 1726, 1722, 1724, 1731, 1743, 1731, 1731, 1740, 1714, 1755, 1739, 1734, 1719, 1720, 1719, 1725, 1726, 1729, 1730, 1729, 1735, 1725, 1726, 1734, 1720, 1719, 1748, 1728, 1739, 1739, 1736, 1731, 1740, 1726, 1725, 1741, 1732, 1717, 1722, 1720, 1739, 1735, 1751, 1729, 1728, 1727, 1742, 1726, 1738, 1751, 1735, 1740, 1729, 1734, 1733, 1729, 1731, 1720, 1729, 1724, 1742, 1716, 1737, 1735, 1724, 1726, 1734, 1732, 1724, 1729, 1735, 1725, 1725, 1716, 1874, 1736, 1753, 1739, 1739, 1727, 1731, 1737, 1734, 1722, 1741, 1743, 1737, 1719, 1730, 1726, 1711, 1735, 1731, 1739, 1734, 1729, 1764, 1735, 1750, 1753, 1746, 1753, 1736, 1735, 1733, 1720, 1723, 1733, 1732, 1734, 1732, 1737, 1731, 1735, 1717, 1729, 1733, 1731, 1730, 1721, 1724, 1720, 1726, 1721, 1742, 1726, 1723, 1737, 1758, 1743, 1725, 1720, 1723, 1736, 1752, 1739, 1745, 1729, 1733, 1729, 1710, 1721, 1722],
      "WindowCenter": [731.0, 730.0, 729.0, 728.0, 729.0, 729.0, 730.0, 730.0, 730.0, 730.0, 730.0, 730.0, 730.0, 729.0, 729.0, 730.0, 729.0, 729.0, 729.0, 729.0, 729.0, 728.0, 727.0, 728.0, 727.0, 727.0, 727.0, 727.0, 727.0, 727.0, 729.0, 728.0, 728.0, 728.0, 728.0, 728.0, 729.0, 729.0, 730.0, 730.0, 728.0, 727.0, 727.0, 728.0, 729.0, 728.0, 728.0, 728.0, 727.0, 727.0, 728.0, 728.0, 729.0, 728.0, 727.0, 726.0, 727.0, 727.0, 727.0, 727.0, 727.0, 727.0, 728.0, 728.0, 729.0, 728.0, 728.0, 727.0, 728.0, 728.0, 729.0, 729.0, 727.0, 726.0, 727.0, 726.0, 726.0, 726.0, 727.0, 727.0, 727.0, 728.0, 728.0, 729.0, 729.0, 729.0, 729.0, 729.0, 728.0, 728.0, 727.0, 726.0, 726.0, 727.0, 727.0, 727.0, 728.0, 727.0, 726.0, 726.0, 725.0, 726.0, 729.0, 729.0, 729.0, 729.0, 729.0, 730.0, 730.0, 730.0, 730.0, 730.0, 729.0, 729.0, 729.0, 728.0, 728.0, 728.0, 728.0, 728.0, 728.0, 728.0, 728.0, 728.0, 729.0, 729.0, 728.0, 728.0, 728.0, 729.0, 728.0, 728.0, 727.0, 728.0, 728.0, 730.0, 731.0, 729.0, 729.0, 728.0, 728.0, 729.0, 728.0, 729.0, 728.0, 727.0, 726.0, 726.0, 727.0, 727.0, 730.0, 731.0, 731.0, 730.0, 729.0, 728.0, 727.0, 727.0, 728.0, 729.0, 730.0, 731.0, 731.0, 731.0, 731.0, 731.0, 732.0, 732.0, 732.0, 730.0, 729.0, 728.0, 728.0, 728.0, 729.0, 729.0, 730.0, 731.0, 731.0, 730.0, 729.0, 729.0, 729.0, 729.0, 729.0, 729.0, 730.0, 729.0, 729.0, 729.0, 729.0, 729.0, 730.0, 730.0, 731.0, 731.0, 732.0, 730.0, 730.0, 729.0, 730.0, 732.0, 731.0, 730.0, 729.0, 729.0, 728.0, 728.0, 729.0, 730.0],
      "WindowWidth": [1554.0, 1550.0, 1548.0, 1546.0, 1548.0, 1549.0, 1549.0, 1550.0, 1550.0, 1550.0, 1550.0, 1551.0, 1550.0, 1548.0, 1548.0, 1549.0, 1547.0, 1548.0, 1547.0, 1547.0, 1547.0, 1545.0, 1544.0, 1545.0, 1543.0, 1543.0, 1544.0, 1543.0, 1543.0, 1543.0, 1547.0, 1545.0, 1544.0, 1545.0, 1546.0, 1546.0, 1549.0, 1548.0, 1551.0, 1549.0, 1545.0, 1543.0, 1543.0, 1546.0, 1548.0, 1546.0, 1546.0, 1544.0, 1543.0, 1544.0, 1546.0, 1544.0, 1547.0, 1545.0, 1542.0, 1541.0, 1542.0, 1542.0, 1542.0, 1543.0, 1542.0, 1543.0, 1545.0, 1546.0, 1548.0, 1546.0, 1544.0, 1543.0, 1544.0, 1545.0, 1547.0, 1547.0, 1544.0, 1541.0, 1542.0, 1541.0, 1540.0, 1542.0, 1542.0, 1543.0, 1544.0, 1546.0, 1546.0, 1548.0, 1549.0, 1549.0, 1548.0, 1548.0, 1546.0, 1544.0, 1543.0, 1540.0, 1540.0, 1542.0, 1542.0, 1542.0, 1546.0, 1543.0, 1540.0, 1541.0, 1539.0, 1540.0, 1547.0, 1548.0, 1548.0, 1548.0, 1549.0, 1551.0, 1550.0, 1549.0, 1549.0, 1549.0, 1548.0, 1547.0, 1547.0, 1545.0, 1546.0, 1544.0, 1545.0, 1545.0, 1544.0, 1544.0, 1544.0, 1545.0, 1547.0, 1548.0, 1545.0, 1544.0, 1545.0, 1548.0, 1545.0, 1544.0, 1544.0, 1545.0, 1546.0, 1549.0, 1552.0, 1549.0, 1547.0, 1545.0, 1544.0, 1547.0, 1546.0, 1548.0, 1545.0, 1543.0, 1542.0, 1541.0, 1543.0, 1544.0, 1549.0, 1552.0, 1553.0, 1550.0, 1547.0, 1544.0, 1542.0, 1543.0, 1546.0, 1547.0, 1551.0, 1553.0, 1552.0, 1553.0, 1553.0, 1554.0, 1555.0, 1555.0, 1554.0, 1549.0, 1547.0, 1546.0, 1545.0, 1546.0, 1548.0, 1549.0, 1551.0, 1552.0, 1552.0, 1550.0, 1548.0, 1547.0, 1547.0, 1546.0, 1546.0, 1547.0, 1549.0, 1547.0, 1548.0, 1548.0, 1547.0, 1548.0, 1549.0, 1551.0, 1552.0, 1553.0, 1554.0, 1550.0, 1549.0, 1549.0, 1551.0, 1555.0, 1552.0, 1550.0, 1547.0, 1546.0, 1544.0, 1544.0, 1547.0, 1550.0]
    },
    "slices": {}
  }
}