{
  "AcquisitionMatrixPE": 64,
  "AcquisitionNumber": 1,
  "AcquisitionTime": "10:48:59.255000",
  "BandwidthPerPixelPhaseEncode": 30.637,
  "BaseResolution": 64,
  "BidsGuess": [
    "func",
    "_acq-epfid2_dir-AP_run-8_bold"
],
  "CoilCombinationMethod": "Sum of Squares",
  "CoilString": "C:HEA;HEP",
  "ConversionSoftware": "dcm2niix",
  "ConversionSoftwareVersion": "v1.0.20240202",
  "DerivedVendorReportedEchoSpacing": 0.000510004,
  "DeviceSerialNumber": "35119",
  "DwellTime": 3.5e-06,
  "EchoTime": 0.03,
  "EffectiveEchoSpacing": 0.000510004,
  "FlipAngle": 78,
  "HeudiconvVersion": "1.1.6",
  "ImageComments": "V",
  "ImageOrientationPatientDICOM": [0.998722, 0.028794, 0.041546, 0, 0.821902, -0.569629],
  "ImageOrientationText": "Tra>Cor(-34.7)>Sag(2.9)",
  "ImageType": [
    "ORIGINAL",
    "PRIMARY",
    "M",
    "ND",
    "MOSAIC"
],
  "ImagingFrequency": 123.251792,
  "InPlanePhaseEncodingDirectionDICOM": "COL",
  "InstitutionAddress": "Chaucer Road  15,Cambridge,UK,GB,CB2 2EF",
  "InstitutionName": "MRC-CBU",
  "MRAcquisitionType": "2D",
  "MagneticFieldStrength": 3,
  "Manufacturer": "Siemens",
  "ManufacturersModelName": "TrioTim",
  "MatrixCoilMode": "SENSE",
  "Modality": "MR",
  "NonlinearGradientCorrection": false,
  "PartialFourier": 1,
  "PatientPosition": "HFS",
  "PercentPhaseFOV": 100,
  "PercentSampling": 100,
  "PhaseEncodingDirection": "j-",
  "PhaseEncodingSteps": 64,
  "PhaseResolution": 1,
  "PixelBandwidth": 2230,
  "ProcedureStepDescription": "CBU^Neuroimaging",
  "ProtocolName": "CBU_DWEPI_BOLD210",
  "PulseSequenceDetails": "%SiemensSeq%\\ep2d_bold",
  "ReceiveCoilName": "HeadMatrix",
  "ReconMatrixPE": 64,
  "RepetitionTime": 2,
  "SAR": 0.128869,
  "ScanOptions": "FS",
  "ScanningSequence": "EP",
  "SequenceName": "*epfid2d1_64",
  "SequenceVariant": "SK",
  "SeriesDescription": "CBU_DWEPI_BOLD210",
  "SeriesNumber": 8,
  "ShimSetting": [-7766, -8719, -2071, 695, 287, 360, -262, -104],
  "SliceThickness": 3,
  "SliceTiming": [0, 1.035, 0.06, 1.095, 0.1225, 1.155, 0.1825, 1.2175, 0.2425, 1.2775, 0.305, 1.3375, 0.365, 1.4, 0.425, 1.46, 0.4875, 1.52, 0.5475, 1.5825, 0.6075, 1.6425, 0.67, 1.7025, 0.73, 1.765, 0.79, 1.825, 0.8525, 1.885, 0.9125, 1.9475, 0.9725],
  "SoftwareVersions": "syngo MR B15",
  "SpacingBetweenSlices": 3.9,
  "StationName": "MRC35119",
  "TaskName": "faceprocessing",
  "TotalReadoutTime": 0.0321303,
  "TxRefAmp": 308.819,
  "dcmmeta_affine": [
    [-2.9961659908294678, 0.0, 0.1971396952867508, 96.60460662841797],
    [-0.08638200163841248, 2.4657061100006104, -2.2187139987945557, -30.852981567382812],
    [0.12463799864053726, 1.708886981010437, 3.2013213634490967, -87.24886322021484],
    [0.0, 0.0, 0.0, 1.0]
],
  "dcmmeta_reorient_transform": [
    [0.0, -1.0, 0.0, 63.0],
    [1.0, 0.0, 0.0, 0.0],
    [0.0, 0.0, 1.0, 0.0],
    [0.0, 0.0, 0.0, 1.0]
],
  "dcmmeta_shape": [64, 64, 33, 210],
  "dcmmeta_slice_dim": 2,
  "dcmmeta_version": 0.6,
  "global": {
    "const": {
      "AcquisitionMatrix": [64, 0, 0, 64],
      "AngioFlag": "N",
      "BitsAllocated": 16,
      "BitsStored": 12,
      "Columns": 384,
      "EchoNumbers": 1,
      "EchoTime": 30.0,
      "EchoTrainLength": 1,
      "FlipAngle": 78.0,
      "HighBit": 11,
      "ImageOrientationPatient": [0.998722, 0.028794, 0.041546, -0.0, 0.821902, -0.569629],
      "ImagePositionPatient": [-575.991163, -532.820577, 273.890855],
      "ImageType": [
        "ORIGINAL",
        "PRIMARY",
        "M",
        "ND",
        "MOSAIC"
],
      "ImagedNucleus": "1H",
      "ImagingFrequency": 123.251792,
      "InPlanePhaseEncodingDirection": "COL",
      "MRAcquisitionType": "2D",
      "MagneticFieldStrength": 3.0,
      "Manufacturer": "SIEMENS",
      "ManufacturerModelName": "TrioTim",
      "Modality": "MR",
      "NumberOfAverages": 1.0,
      "NumberOfPhaseEncodingSteps": 64,
      "PercentPhaseFieldOfView": 100.0,
      "PercentSampling": 100.0,
      "PerformedProcedureStepStartTime": "100102.750000",
      "PhotometricInterpretation": "MONOCHROME2",
      "PixelAspectRatio": [1, 1],
      "PixelBandwidth": 2230.0,
      "PixelRepresentation": 0,
      "PixelSpacing": [3.0, 3.0],
      "ProtocolName": "CBU_DWEPI_BOLD210",
      "RepetitionTime": 2000.0,
      "Rows": 384,
      "SAR": 0.128869,
      "SamplesPerPixel": 1,
      "ScanOptions": "FS",
      "ScanningSequence": "EP",
      "SequenceName": "*epfid2d1_64",
      "SequenceVariant": "SK",
      "SeriesDescription": "CBU_DWEPI_BOLD210",
      "SeriesNumber": 8,
      "SeriesTime": "104902.734000",
      "SliceLocation": -49.183066,
      "SliceThickness": 3.0,
      "SmallestImagePixelValue": 0,
      "SoftwareVersions": "syngo MR B15",
      "SpacingBetweenSlices": 3.9,
      "SpecificCharacterSet": "ISO_IR 100",
      "StudyID": "1",
      "StudyTime": "100102.687000",
      "TransmitCoilName": "Body",
      "VariableFlipAngleFlag": "N",
      "WindowCenterWidthExplanation": "Algo1",
      "dBdt": 0.0},
    "slices": {}
  },
  "time": {
    "samples": {
      "AcquisitionNumber": [1, 2, 3, 4, 5, 6, 7, 8, 9, 10, 11, 12, 13, 14, 15, 16, 17, 18, 19, 20, 21, 22, 23, 24, 25, 26, 27, 28, 29, 30, 31, 32, 33, 34, 35, 36, 37, 38, 39, 40, 41, 42, 43, 44, 45, 46, 47, 48, 49, 50, 51, 52, 53, 54, 55, 56, 57, 58, 59, 60, 61, 62, 63, 64, 65, 66, 67, 68, 69, 70, 71, 72, 73, 74, 75, 76, 77, 78, 79, 80, 81, 82, 83, 84, 85, 86, 87, 88, 89, 90, 91, 92, 93, 94, 95, 96, 97, 98, 99, 100, 101, 102, 103, 104, 105, 106, 107, 108, 109, 110, 111, 112, 113, 114, 115, 116, 117, 118, 119, 120, 121, 122, 123, 124, 125, 126, 127, 128, 129, 130, 131, 132, 133, 134, 135, 136, 137, 138, 139, 140, 141, 142, 143, 144, 145, 146, 147, 148, 149, 150, 151, 152, 153, 154, 155, 156, 157, 158, 159, 160, 161, 162, 163, 164, 165, 166, 167, 168, 169, 170, 171, 172, 173, 174, 175, 176, 177, 178, 179, 180, 181, 182, 183, 184, 185, 186, 187, 188, 189, 190, 191, 192, 193, 194, 195, 196, 197, 198, 199, 200, 201, 202, 203, 204, 205, 206, 207, 208, 209, 210],
      "AcquisitionTime": ["104859.255000", "104901.262500", "104903.270000", "104905.280000", "104907.287500", "104909.295000", "104911.302500", "104913.310000", "104915.320000", "104917.327500", "104919.335000", "104921.342500", "104923.352500", "104925.360000", "104927.367500", "104929.375000", "104931.382500", "104933.392500", "104935.400000", "104937.407500", "104939.415000", "104941.422500", "104943.432500", "104945.440000", "104947.447500", "104949.455000", "104951.465000", "104953.472500", "104955.480000", "104957.487500", "104959.495000", "105001.505000", "105003.512500", "105005.520000", "105007.527500", "105009.535000", "105011.545000", "105013.552500", "105015.560000", "105017.567500", "105019.575000", "105021.585000", "105023.592500", "105025.600000", "105027.607500", "105029.617500", "105031.625000", "105033.632500", "105035.640000", "105037.647500", "105039.657500", "105041.665000", "105043.672500", "105045.680000", "105047.687500", "105049.697500", "105051.705000", "105053.712500", "105055.720000", "105057.730000", "105059.737500", "105101.745000", "105103.752500", "105105.760000", "105107.770000", "105109.777500", "105111.785000", "105113.792500", "105115.800000", "105117.810000", "105119.817500", "105121.825000", "105123.832500", "105125.842500", "105127.850000", "105129.857500", "105131.865000", "105133.872500", "105135.882500", "105137.890000", "105139.897500", "105141.905000", "105143.912500", "105145.922500", "105147.930000", "105149.937500", "105151.945000", "105153.952500", "105155.962500", "105157.970000", "105159.977500", "105201.985000", "105203.995000", "105206.002500", "105208.010000", "105210.017500", "105212.025000", "105214.035000", "105216.042500", "105218.050000", "105220.057500", "105222.065000", "105224.075000", "105226.082500", "105228.090000", "105230.097500", "105232.107500", "105234.115000", "105236.122500", "105238.130000", "105240.137500", "105242.147500", "105244.155000", "105246.162500", "105248.170000", "105250.177500", "105252.187500", "105254.195000", "105256.202500", "105258.210000", "105300.220000", "105302.227500", "105304.235000", "105306.242500", "105308.250000", "105310.260000", "105312.267500", "105314.275000", "105316.282500", "105318.290000", "105320.300000", "105322.307500", "105324.315000", "105326.322500", "105328.330000", "105330.340000", "105332.347500", "105334.355000", "105336.362500", "105338.372500", "105340.380000", "105342.387500", "105344.395000", "105346.402500", "105348.412500", "105350.420000", "105352.427500", "105354.435000", "105356.442500", "105358.452500", "105400.460000", "105402.467500", "105404.475000", "105406.485000", "105408.492500", "105410.500000", "105412.507500", "105414.515000", "105416.525000", "105418.532500", "105420.540000", "105422.547500", "105424.555000", "105426.565000", "105428.572500", "105430.580000", "105432.587500", "105434.597500", "105436.605000", "105438.612500", "105440.620000", "105442.627500", "105444.637500", "105446.645000", "105448.652500", "105450.660000", "105452.667500", "105454.677500", "105456.685000", "105458.692500", "105500.700000", "105502.707500", "105504.717500", "105506.725000", "105508.732500", "105510.740000", "105512.750000", "105514.757500", "105516.765000", "105518.772500", "105520.780000", "105522.790000", "105524.797500", "105526.805000", "105528.812500", "105530.820000", "105532.830000", "105534.837500", "105536.845000", "105538.852500", "105540.862500", "105542.870000", "105544.877500", "105546.885000", "105548.892500", "105550.902500", "105552.910000", "105554.917500", "105556.925000", "105558.932500"],
      "ContentTime": ["104902.734000", "104904.718000", "104906.718000", "104908.718000", "104910.718000", "104913.218000", "104914.718000", "104916.718000", "104918.718000", "104920.718000", "104922.718000", "104924.718000", "104926.718000", "104928.718000", "104930.718000", "104932.718000", "104934.718000", "104936.718000", "104938.718000", "104940.718000", "104942.718000", "104944.718000", "104946.718000", "104948.718000", "104950.718000", "104952.718000", "104954.718000", "104956.718000", "104958.718000", "105000.718000", "105002.718000", "105004.718000", "105006.718000", "105008.718000", "105010.718000", "105012.718000", "105014.718000", "105016.718000", "105018.718000", "105020.718000", "105022.718000", "105024.718000", "105026.718000", "105028.718000", "105030.734000", "105032.734000", "105034.734000", "105036.718000", "105038.718000", "105040.718000", "105042.718000", "105044.718000", "105046.718000", "105048.718000", "105050.718000", "105052.718000", "105054.718000", "105057.218000", "105058.718000", "105100.718000", "105102.718000", "105104.718000", "105106.718000", "105108.718000", "105110.718000", "105112.718000", "105114.718000", "105116.718000", "105118.718000", "105120.718000", "105122.718000", "105124.718000", "105126.718000", "105128.718000", "105130.718000", "105132.718000", "105134.718000", "105136.718000", "105138.718000", "105140.718000", "105142.718000", "105144.718000", "105146.718000", "105148.718000", "105150.718000", "105152.718000", "105154.718000", "105156.718000", "105158.718000", "105200.718000", "105202.718000", "105204.718000", "105206.718000", "105208.718000", "105210.718000", "105212.718000", "105214.718000", "105216.718000", "105218.718000", "105220.718000", "105222.718000", "105224.718000", "105226.718000", "105228.718000", "105230.718000", "105232.718000", "105234.718000", "105236.718000", "105238.718000", "105240.718000", "105242.718000", "105244.718000", "105246.718000", "105248.718000", "105250.718000", "105252.718000", "105254.718000", "105256.718000", "105258.718000", "105300.718000", "105302.718000", "105304.718000", "105306.718000", "105308.718000", "105310.718000", "105313.218000", "105314.718000", "105316.718000", "105318.718000", "105320.718000", "105322.718000", "105324.718000", "105326.718000", "105328.718000", "105330.718000", "105332.718000", "105334.718000", "105336.718000", "105338.718000", "105340.718000", "105342.718000", "105344.718000", "105346.718000", "105348.718000", "105350.718000", "105352.718000", "105354.718000", "105356.718000", "105358.718000", "105400.718000", "105402.718000", "105404.718000", "105406.718000", "105408.718000", "105410.718000", "105412.734000", "105414.718000", "105416.718000", "105418.718000", "105420.718000", "105422.718000", "105424.718000", "105426.718000", "105428.718000", "105430.718000", "105432.718000", "105434.718000", "105436.718000", "105438.718000", "105440.718000", "105442.718000", "105444.718000", "105446.718000", "105448.718000", "105450.718000", "105452.718000", "105454.718000", "105456.718000", "105458.718000", "105500.718000", "105502.718000", "105504.718000", "105506.718000", "105508.718000", "105510.718000", "105512.718000", "105514.718000", "105516.718000", "105518.718000", "105520.718000", "105522.718000", "105524.718000", "105526.718000", "105528.718000", "105530.718000", "105532.718000", "105534.718000", "105537.218000", "105538.718000", "105540.718000", "105542.718000", "105544.718000", "105546.718000", "105548.718000", "105551.218000", "105552.718000", "105554.718000", "105556.718000", "105558.718000", "105600.625000"],
      "InstanceCreationTime": ["104902.734000", "104904.718000", "104906.718000", "104908.718000", "104910.718000", "104913.218000", "104914.718000", "104916.718000", "104918.718000", "104920.718000", "104922.718000", "104924.718000", "104926.718000", "104928.718000", "104930.718000", "104932.718000", "104934.718000", "104936.718000", "104938.718000", "104940.718000", "104942.718000", "104944.718000", "104946.718000", "104948.718000", "104950.718000", "104952.718000", "104954.718000", "104956.718000", "104958.718000", "105000.718000", "105002.718000", "105004.718000", "105006.718000", "105008.718000", "105010.718000", "105012.718000", "105014.718000", "105016.718000", "105018.718000", "105020.718000", "105022.718000", "105024.718000", "105026.718000", "105028.718000", "105030.734000", "105032.734000", "105034.734000", "105036.718000", "105038.718000", "105040.718000", "105042.718000", "105044.718000", "105046.718000", "105048.718000", "105050.718000", "105052.718000", "105054.718000", "105057.218000", "105058.718000", "105100.718000", "105102.718000", "105104.718000", "105106.718000", "105108.718000", "105110.718000", "105112.718000", "105114.718000", "105116.718000", "105118.718000", "105120.718000", "105122.718000", "105124.718000", "105126.718000", "105128.718000", "105130.718000", "105132.718000", "105134.718000", "105136.718000", "105138.718000", "105140.718000", "105142.718000", "105144.718000", "105146.718000", "105148.718000", "105150.718000", "105152.718000", "105154.718000", "105156.718000", "105158.718000", "105200.718000", "105202.718000", "105204.718000", "105206.718000", "105208.718000", "105210.718000", "105212.718000", "105214.718000", "105216.718000", "105218.718000", "105220.718000", "105222.718000", "105224.718000", "105226.718000", "105228.718000", "105230.718000", "105232.718000", "105234.718000", "105236.718000", "105238.718000", "105240.718000", "105242.718000", "105244.718000", "105246.718000", "105248.718000", "105250.718000", "105252.718000", "105254.718000", "105256.718000", "105258.718000", "105300.718000", "105302.718000", "105304.718000", "105306.718000", "105308.718000", "105310.718000", "105313.218000", "105314.718000", "105316.718000", "105318.718000", "105320.718000", "105322.718000", "105324.718000", "105326.718000", "105328.718000", "105330.718000", "105332.718000", "105334.718000", "105336.718000", "105338.718000", "105340.718000", "105342.718000", "105344.718000", "105346.718000", "105348.718000", "105350.718000", "105352.718000", "105354.718000", "105356.718000", "105358.718000", "105400.718000", "105402.718000", "105404.718000", "105406.718000", "105408.718000", "105410.718000", "105412.734000", "105414.718000", "105416.718000", "105418.718000", "105420.718000", "105422.718000", "105424.718000", "105426.718000", "105428.718000", "105430.718000", "105432.718000", "105434.718000", "105436.718000", "105438.718000", "105440.718000", "105442.718000", "105444.718000", "105446.718000", "105448.718000", "105450.718000", "105452.718000", "105454.718000", "105456.718000", "105458.718000", "105500.718000", "105502.718000", "105504.718000", "105506.718000", "105508.718000", "105510.718000", "105512.718000", "105514.718000", "105516.718000", "105518.718000", "105520.718000", "105522.718000", "105524.718000", "105526.718000", "105528.718000", "105530.718000", "105532.718000", "105534.718000", "105537.218000", "105538.718000", "105540.718000", "105542.718000", "105544.718000", "105546.718000", "105548.718000", "105551.218000", "105552.718000", "105554.718000", "105556.718000", "105558.718000", "105600.625000"],
      "InstanceNumber": [1, 2, 3, 4, 5, 6, 7, 8, 9, 10, 11, 12, 13, 14, 15, 16, 17, 18, 19, 20, 21, 22, 23, 24, 25, 26, 27, 28, 29, 30, 31, 32, 33, 34, 35, 36, 37, 38, 39, 40, 41, 42, 43, 44, 45, 46, 47, 48, 49, 50, 51, 52, 53, 54, 55, 56, 57, 58, 59, 60, 61, 62, 63, 64, 65, 66, 67, 68, 69, 70, 71, 72, 73, 74, 75, 76, 77, 78, 79, 80, 81, 82, 83, 84, 85, 86, 87, 88, 89, 90, 91, 92, 93, 94, 95, 96, 97, 98, 99, 100, 101, 102, 103, 104, 105, 106, 107, 108, 109, 110, 111, 112, 113, 114, 115, 116, 117, 118, 119, 120, 121, 122, 123, 124, 125, 126, 127, 128, 129, 130, 131, 132, 133, 134, 135, 136, 137, 138, 139, 140, 141, 142, 143, 144, 145, 146, 147, 148, 149, 150, 151, 152, 153, 154, 155, 156, 157, 158, 159, 160, 161, 162, 163, 164, 165, 166, 167, 168, 169, 170, 171, 172, 173, 174, 175, 176, 177, 178, 179, 180, 181, 182, 183, 184, 185, 186, 187, 188, 189, 190, 191, 192, 193, 194, 195, 196, 197, 198, 199, 200, 201, 202, 203, 204, 205, 206, 207, 208, 209, 210],
      "LargestImagePixelValue": [2123, 2027, 2012, 1984, 1989, 1978, 1980, 1987, 1992, 1976, 1991, 1994, 1975, 1987, 1978, 1982, 1979, 1954, 1980, 1960, 1976, 1965, 1965, 1971, 1973, 1965, 1976, 1959, 1976, 1978, 1958, 1974, 1954, 1976, 1961, 1962, 1959, 1979, 1978, 1979, 1976, 1967, 1955, 1950, 1963, 1967, 1965, 1961, 1959, 1966, 1942, 1966, 1960, 1963, 1961, 1966, 1950, 1972, 1959, 1972, 1985, 1961, 1976, 1977, 1961, 1965, 1954, 1967, 1960, 1979, 1965, 1946, 1969, 1950, 1972, 1966, 1946, 1963, 1946, 1952, 1954, 1947, 1948, 1935, 1941, 1951, 1968, 1943, 1955, 1939, 1964, 1925, 1932, 1926, 1943, 1946, 1954, 1951, 1947, 1936, 1956, 1923, 1945, 1922, 1936, 1927, 1915, 1949, 1928, 1929, 1942, 1925, 1936, 1932, 1958, 1930, 1921, 1935, 1944, 1925, 1918, 1920, 1941, 1945, 1924, 1939, 1948, 1925, 1926, 1941, 1918, 1958, 1943, 1930, 1934, 1924, 1934, 1942, 1935, 1923, 1944, 1919, 1936, 1935, 1929, 1932, 1934, 1927, 1943, 1934, 1941, 1946, 1928, 1945, 1928, 1941, 1922, 1927, 1919, 1935, 1921, 1946, 1916, 1936, 1921, 1914, 1929, 1934, 1934, 1950, 1916, 1927, 1947, 1931, 1938, 1928, 1940, 1937, 1935, 1935, 1940, 1939, 1930, 1944, 1939, 1929, 1940, 1931, 1927, 1918, 1950, 1942, 1948, 1929, 1920, 1918, 1924, 1924, 1933, 1937, 1948, 1936, 1924, 1940, 1925, 1939, 1940, 1976, 2263, 1974],
      "WindowCenter": [768.0, 766.0, 762.0, 760.0, 759.0, 758.0, 757.0, 758.0, 757.0, 757.0, 758.0, 758.0, 759.0, 758.0, 758.0, 758.0, 758.0, 758.0, 759.0, 759.0, 759.0, 758.0, 757.0, 757.0, 757.0, 757.0, 757.0, 757.0, 758.0, 758.0, 758.0, 757.0, 757.0, 758.0, 757.0, 757.0, 757.0, 757.0, 757.0, 757.0, 758.0, 758.0, 756.0, 757.0, 756.0, 757.0, 757.0, 758.0, 757.0, 757.0, 756.0, 757.0, 757.0, 757.0, 756.0, 756.0, 756.0, 757.0, 757.0, 757.0, 756.0, 756.0, 756.0, 756.0, 757.0, 757.0, 759.0, 759.0, 758.0, 757.0, 757.0, 758.0, 759.0, 759.0, 758.0, 757.0, 757.0, 757.0, 757.0, 757.0, 758.0, 758.0, 758.0, 757.0, 756.0, 757.0, 757.0, 757.0, 757.0, 756.0, 756.0, 756.0, 758.0, 757.0, 757.0, 756.0, 756.0, 756.0, 756.0, 756.0, 757.0, 756.0, 756.0, 756.0, 757.0, 758.0, 758.0, 758.0, 757.0, 757.0, 757.0, 757.0, 757.0, 757.0, 757.0, 757.0, 756.0, 756.0, 756.0, 757.0, 756.0, 756.0, 757.0, 757.0, 757.0, 757.0, 757.0, 756.0, 757.0, 758.0, 758.0, 758.0, 757.0, 757.0, 756.0, 757.0, 757.0, 757.0, 757.0, 756.0, 757.0, 756.0, 757.0, 757.0, 757.0, 757.0, 757.0, 757.0, 758.0, 757.0, 757.0, 756.0, 756.0, 757.0, 757.0, 757.0, 757.0, 757.0, 757.0, 758.0, 758.0, 758.0, 757.0, 758.0, 758.0, 758.0, 757.0, 757.0, 758.0, 758.0, 759.0, 759.0, 759.0, 760.0, 759.0, 758.0, 758.0, 758.0, 758.0, 758.0, 757.0, 757.0, 757.0, 758.0, 758.0, 758.0, 757.0, 757.0, 757.0, 757.0, 759.0, 759.0, 759.0, 758.0, 757.0, 757.0, 756.0, 757.0, 757.0, 759.0, 759.0, 759.0, 759.0, 758.0, 758.0, 758.0, 758.0, 759.0, 774.0, 757.0],
      "WindowWidth": [1642.0, 1635.0, 1624.0, 1617.0, 1616.0, 1612.0, 1611.0, 1613.0, 1611.0, 1611.0, 1612.0, 1613.0, 1615.0, 1614.0, 1613.0, 1612.0, 1613.0, 1613.0, 1615.0, 1614.0, 1615.0, 1613.0, 1612.0, 1612.0, 1611.0, 1610.0, 1611.0, 1611.0, 1613.0, 1613.0, 1612.0, 1611.0, 1612.0, 1613.0, 1611.0, 1611.0, 1610.0, 1610.0, 1612.0, 1612.0, 1613.0, 1613.0, 1609.0, 1610.0, 1609.0, 1612.0, 1611.0, 1612.0, 1612.0, 1610.0, 1609.0, 1610.0, 1612.0, 1611.0, 1609.0, 1609.0, 1608.0, 1611.0, 1611.0, 1612.0, 1610.0, 1609.0, 1609.0, 1609.0, 1611.0, 1612.0, 1615.0, 1616.0, 1613.0, 1611.0, 1611.0, 1613.0, 1616.0, 1615.0, 1613.0, 1611.0, 1611.0, 1611.0, 1612.0, 1612.0, 1613.0, 1615.0, 1612.0, 1610.0, 1610.0, 1610.0, 1612.0, 1611.0, 1611.0, 1608.0, 1609.0, 1609.0, 1613.0, 1612.0, 1611.0, 1609.0, 1609.0, 1609.0, 1609.0, 1609.0, 1610.0, 1607.0, 1609.0, 1610.0, 1612.0, 1614.0, 1615.0, 1614.0, 1612.0, 1612.0, 1611.0, 1611.0, 1612.0, 1611.0, 1612.0, 1610.0, 1610.0, 1609.0, 1609.0, 1611.0, 1610.0, 1610.0, 1610.0, 1610.0, 1612.0, 1611.0, 1611.0, 1609.0, 1611.0, 1613.0, 1613.0, 1614.0, 1610.0, 1610.0, 1609.0, 1611.0, 1612.0, 1612.0, 1611.0, 1609.0, 1611.0, 1609.0, 1610.0, 1610.0, 1612.0, 1612.0, 1611.0, 1612.0, 1612.0, 1612.0, 1611.0, 1609.0, 1610.0, 1610.0, 1610.0, 1611.0, 1611.0, 1611.0, 1611.0, 1613.0, 1613.0, 1612.0, 1612.0, 1613.0, 1613.0, 1613.0, 1612.0, 1611.0, 1613.0, 1614.0, 1615.0, 1615.0, 1617.0, 1619.0, 1617.0, 1614.0, 1614.0, 1613.0, 1614.0, 1612.0, 1611.0, 1611.0, 1612.0, 1612.0, 1613.0, 1612.0, 1611.0, 1611.0, 1611.0, 1611.0, 1615.0, 1616.0, 1617.0, 1613.0, 1611.0, 1610.0, 1609.0, 1610.0, 1611.0, 1615.0, 1615.0, 1615.0, 1615.0, 1614.0, 1613.0, 1612.0, 1613.0, 1617.0, 1664.0, 1608.0]
    },
    "slices": {}
  }
}