{
  "AcquisitionMatrixPE": 64,
  "AcquisitionNumber": 1,
  "AcquisitionTime": "10:57:54.135000",
  "BandwidthPerPixelPhaseEncode": 30.637,
  "BaseResolution": 64,
  "BidsGuess": [
    "func",
    "_acq-epfid2_dir-AP_run-9_bold"
],
  "CoilCombinationMethod": "Sum of Squares",
  "CoilString": "C:HEA;HEP",
  "ConversionSoftware": "dcm2niix",
  "ConversionSoftwareVersion": "v1.0.20240202",
  "DerivedVendorReportedEchoSpacing": 0.000510004,
  "DeviceSerialNumber": "35119",
  "DwellTime": 3.5e-06,
  "EchoTime": 0.03,
  "EffectiveEchoSpacing": 0.000510004,
  "FlipAngle": 78,
  "HeudiconvVersion": "1.1.6",
  "ImageComments": "V",
  "ImageOrientationPatientDICOM": [0.998722, 0.028794, 0.041546, 0, 0.821902, -0.569629],
  "ImageOrientationText": "Tra>Cor(-34.7)>Sag(2.9)",
  "ImageType": [
    "ORIGINAL",
    "PRIMARY",
    "M",
    "ND",
    "MOSAIC"
],
  "ImagingFrequency": 123.251792,
  "InPlanePhaseEncodingDirectionDICOM": "COL",
  "InstitutionAddress": "Chaucer Road  15,Cambridge,UK,GB,CB2 2EF",
  "InstitutionName": "MRC-CBU",
  "MRAcquisitionType": "2D",
  "MagneticFieldStrength": 3,
  "Manufacturer": "Siemens",
  "ManufacturersModelName": "TrioTim",
  "MatrixCoilMode": "SENSE",
  "Modality": "MR",
  "NonlinearGradientCorrection": false,
  "PartialFourier": 1,
  "PatientPosition": "HFS",
  "PercentPhaseFOV": 100,
  "PercentSampling": 100,
  "PhaseEncodingDirection": "j-",
  "PhaseEncodingSteps": 64,
  "PhaseResolution": 1,
  "PixelBandwidth": 2230,
  "ProcedureStepDescription": "CBU^Neuroimaging",
  "ProtocolName": "CBU_DWEPI_BOLD210",
  "PulseSequenceDetails": "%SiemensSeq%\\ep2d_bold",
  "ReceiveCoilName": "HeadMatrix",
  "ReconMatrixPE": 64,
  "RepetitionTime": 2,
  "SAR": 0.128869,
  "ScanOptions": "FS",
  "ScanningSequence": "EP",
  "SequenceName": "*epfid2d1_64",
  "SequenceVariant": "SK",
  "SeriesDescription": "CBU_DWEPI_BOLD210",
  "SeriesNumber": 9,
  "ShimSetting": [-7766, -8719, -2071, 695, 287, 360, -262, -104],
  "SliceThickness": 3,
  "SliceTiming": [0, 1.035, 0.06, 1.095, 0.1225, 1.155, 0.1825, 1.2175, 0.2425, 1.2775, 0.305, 1.3375, 0.365, 1.4, 0.425, 1.46, 0.4875, 1.52, 0.5475, 1.5825, 0.6075, 1.6425, 0.67, 1.7025, 0.73, 1.765, 0.79, 1.825, 0.8525, 1.885, 0.9125, 1.9475, 0.9725],
  "SoftwareVersions": "syngo MR B15",
  "SpacingBetweenSlices": 3.9,
  "StationName": "MRC35119",
  "TaskName": "faceprocessing",
  "TotalReadoutTime": 0.0321303,
  "TxRefAmp": 308.819,
  "dcmmeta_affine": [
    [-2.9961659908294678, 0.0, 0.1971396952867508, 96.60460662841797],
    [-0.08638200163841248, 2.4657061100006104, -2.2187139987945557, -30.852981567382812],
    [0.12463799864053726, 1.708886981010437, 3.2013213634490967, -87.24886322021484],
    [0.0, 0.0, 0.0, 1.0]
],
  "dcmmeta_reorient_transform": [
    [0.0, -1.0, 0.0, 63.0],
    [1.0, 0.0, 0.0, 0.0],
    [0.0, 0.0, 1.0, 0.0],
    [0.0, 0.0, 0.0, 1.0]
],
  "dcmmeta_shape": [64, 64, 33, 210],
  "dcmmeta_slice_dim": 2,
  "dcmmeta_version": 0.6,
  "global": {
    "const": {
      "AcquisitionMatrix": [64, 0, 0, 64],
      "AngioFlag": "N",
      "BitsAllocated": 16,
      "BitsStored": 12,
      "Columns": 384,
      "EchoNumbers": 1,
      "EchoTime": 30.0,
      "EchoTrainLength": 1,
      "FlipAngle": 78.0,
      "HighBit": 11,
      "ImageOrientationPatient": [0.998722, 0.028794, 0.041546, -0.0, 0.821902, -0.569629],
      "ImagePositionPatient": [-575.991163, -532.820577, 273.890855],
      "ImageType": [
        "ORIGINAL",
        "PRIMARY",
        "M",
        "ND",
        "MOSAIC"
],
      "ImagedNucleus": "1H",
      "ImagingFrequency": 123.251792,
      "InPlanePhaseEncodingDirection": "COL",
      "MRAcquisitionType": "2D",
      "MagneticFieldStrength": 3.0,
      "Manufacturer": "SIEMENS",
      "ManufacturerModelName": "TrioTim",
      "Modality": "MR",
      "NumberOfAverages": 1.0,
      "NumberOfPhaseEncodingSteps": 64,
      "PercentPhaseFieldOfView": 100.0,
      "PercentSampling": 100.0,
      "PerformedProcedureStepStartTime": "100102.750000",
      "PhotometricInterpretation": "MONOCHROME2",
      "PixelAspectRatio": [1, 1],
      "PixelBandwidth": 2230.0,
      "PixelRepresentation": 0,
      "PixelSpacing": [3.0, 3.0],
      "ProtocolName": "CBU_DWEPI_BOLD210",
      "RepetitionTime": 2000.0,
      "Rows": 384,
      "SAR": 0.128869,
      "SamplesPerPixel": 1,
      "ScanOptions": "FS",
      "ScanningSequence": "EP",
      "SequenceName": "*epfid2d1_64",
      "SequenceVariant": "SK",
      "SeriesDescription": "CBU_DWEPI_BOLD210",
      "SeriesNumber": 9,
      "SeriesTime": "105757.484000",
      "SliceLocation": -49.183066,
      "SliceThickness": 3.0,
      "SmallestImagePixelValue": 0,
      "SoftwareVersions": "syngo MR B15",
      "SpacingBetweenSlices": 3.9,
      "SpecificCharacterSet": "ISO_IR 100",
      "StudyID": "1",
      "StudyTime": "100102.687000",
      "TransmitCoilName": "Body",
      "VariableFlipAngleFlag": "N",
      "WindowCenterWidthExplanation": "Algo1",
      "dBdt": 0.0},
    "slices": {}
  },
  "time": {
    "samples": {
      "AcquisitionNumber": [1, 2, 3, 4, 5, 6, 7, 8, 9, 10, 11, 12, 13, 14, 15, 16, 17, 18, 19, 20, 21, 22, 23, 24, 25, 26, 27, 28, 29, 30, 31, 32, 33, 34, 35, 36, 37, 38, 39, 40, 41, 42, 43, 44, 45, 46, 47, 48, 49, 50, 51, 52, 53, 54, 55, 56, 57, 58, 59, 60, 61, 62, 63, 64, 65, 66, 67, 68, 69, 70, 71, 72, 73, 74, 75, 76, 77, 78, 79, 80, 81, 82, 83, 84, 85, 86, 87, 88, 89, 90, 91, 92, 93, 94, 95, 96, 97, 98, 99, 100, 101, 102, 103, 104, 105, 106, 107, 108, 109, 110, 111, 112, 113, 114, 115, 116, 117, 118, 119, 120, 121, 122, 123, 124, 125, 126, 127, 128, 129, 130, 131, 132, 133, 134, 135, 136, 137, 138, 139, 140, 141, 142, 143, 144, 145, 146, 147, 148, 149, 150, 151, 152, 153, 154, 155, 156, 157, 158, 159, 160, 161, 162, 163, 164, 165, 166, 167, 168, 169, 170, 171, 172, 173, 174, 175, 176, 177, 178, 179, 180, 181, 182, 183, 184, 185, 186, 187, 188, 189, 190, 191, 192, 193, 194, 195, 196, 197, 198, 199, 200, 201, 202, 203, 204, 205, 206, 207, 208, 209, 210],
      "AcquisitionTime": ["105754.135000", "105756.142500", "105758.150000", "105800.160000", "105802.167500", "105804.175000", "105806.182500", "105808.190000", "105810.200000", "105812.207500", "105814.215000", "105816.222500", "105818.230000", "105820.240000", "105822.247500", "105824.255000", "105826.262500", "105828.272500", "105830.280000", "105832.287500", "105834.295000", "105836.302500", "105838.312500", "105840.320000", "105842.327500", "105844.335000", "105846.342500", "105848.352500", "105850.360000", "105852.367500", "105854.375000", "105856.382500", "105858.392500", "105900.400000", "105902.407500", "105904.415000", "105906.425000", "105908.432500", "105910.440000", "105912.447500", "105914.455000", "105916.465000", "105918.472500", "105920.480000", "105922.487500", "105924.495000", "105926.505000", "105928.512500", "105930.520000", "105932.527500", "105934.537500", "105936.545000", "105938.552500", "105940.560000", "105942.567500", "105944.577500", "105946.585000", "105948.592500", "105950.600000", "105952.607500", "105954.617500", "105956.625000", "105958.632500", "110000.640000", "110002.650000", "110004.657500", "110006.665000", "110008.672500", "110010.680000", "110012.690000", "110014.697500", "110016.705000", "110018.712500", "110020.720000", "110022.730000", "110024.737500", "110026.745000", "110028.752500", "110030.760000", "110032.770000", "110034.777500", "110036.785000", "110038.792500", "110040.802500", "110042.810000", "110044.817500", "110046.825000", "110048.832500", "110050.842500", "110052.850000", "110054.857500", "110056.865000", "110058.872500", "110100.882500", "110102.890000", "110104.897500", "110106.905000", "110108.915000", "110110.922500", "110112.930000", "110114.937500", "110116.945000", "110118.955000", "110120.962500", "110122.970000", "110124.977500", "110126.985000", "110128.995000", "110131.002500", "110133.010000", "110135.017500", "110137.027500", "110139.035000", "110141.042500", "110143.050000", "110145.057500", "110147.067500", "110149.075000", "110151.082500", "110153.090000", "110155.097500", "110157.107500", "110159.115000", "110201.122500", "110203.130000", "110205.137500", "110207.147500", "110209.155000", "110211.162500", "110213.170000", "110215.180000", "110217.187500", "110219.195000", "110221.202500", "110223.210000", "110225.220000", "110227.227500", "110229.235000", "110231.242500", "110233.250000", "110235.260000", "110237.267500", "110239.275000", "110241.282500", "110243.292500", "110245.300000", "110247.307500", "110249.315000", "110251.322500", "110253.332500", "110255.340000", "110257.347500", "110259.355000", "110301.362500", "110303.372500", "110305.380000", "110307.387500", "110309.395000", "110311.405000", "110313.412500", "110315.420000", "110317.427500", "110319.435000", "110321.445000", "110323.452500", "110325.460000", "110327.467500", "110329.475000", "110331.485000", "110333.492500", "110335.500000", "110337.507500", "110339.515000", "110341.525000", "110343.532500", "110345.540000", "110347.547500", "110349.557500", "110351.565000", "110353.572500", "110355.580000", "110357.587500", "110359.597500", "110401.605000", "110403.612500", "110405.620000", "110407.627500", "110409.637500", "110411.645000", "110413.652500", "110415.660000", "110417.670000", "110419.677500", "110421.685000", "110423.692500", "110425.700000", "110427.710000", "110429.717500", "110431.725000", "110433.732500", "110435.740000", "110437.750000", "110439.757500", "110441.765000", "110443.772500", "110445.782500", "110447.790000", "110449.797500", "110451.805000", "110453.812500"],
      "ContentTime": ["105757.484000", "105759.484000", "105801.484000", "105803.484000", "105805.484000", "105807.484000", "105809.484000", "105811.484000", "105813.484000", "105815.484000", "105817.484000", "105819.484000", "105821.484000", "105823.484000", "105825.484000", "105826.984000", "105829.484000", "105831.484000", "105833.484000", "105835.484000", "105837.484000", "105839.484000", "105841.484000", "105843.484000", "105845.484000", "105847.484000", "105849.484000", "105851.484000", "105853.484000", "105855.484000", "105857.484000", "105858.984000", "105901.484000", "105903.484000", "105905.484000", "105907.484000", "105909.484000", "105911.484000", "105913.484000", "105915.484000", "105917.484000", "105919.484000", "105921.484000", "105923.484000", "105925.484000", "105927.484000", "105929.484000", "105930.984000", "105933.484000", "105935.484000", "105937.484000", "105939.484000", "105941.484000", "105943.484000", "105945.484000", "105947.484000", "105949.484000", "105951.484000", "105953.484000", "105955.484000", "105957.484000", "105959.484000", "110001.484000", "110002.984000", "110005.484000", "110007.484000", "110009.484000", "110011.484000", "110013.484000", "110015.484000", "110017.484000", "110019.484000", "110021.484000", "110023.484000", "110025.484000", "110027.484000", "110029.484000", "110031.484000", "110033.484000", "110035.484000", "110037.484000", "110039.484000", "110041.484000", "110043.484000", "110045.484000", "110047.484000", "110049.484000", "110051.484000", "110053.484000", "110055.484000", "110057.484000", "110059.484000", "110101.484000", "110103.484000", "110105.484000", "110106.984000", "110109.484000", "110111.484000", "110113.484000", "110115.484000", "110117.484000", "110119.484000", "110121.484000", "110123.484000", "110125.484000", "110127.484000", "110129.484000", "110131.484000", "110133.484000", "110135.484000", "110137.484000", "110138.984000", "110141.484000", "110143.484000", "110145.484000", "110147.484000", "110149.484000", "110151.484000", "110153.484000", "110155.484000", "110157.484000", "110159.484000", "110201.484000", "110203.484000", "110205.484000", "110207.484000", "110209.484000", "110210.984000", "110213.484000", "110215.484000", "110217.484000", "110219.484000", "110221.484000", "110223.484000", "110225.484000", "110227.484000", "110229.484000", "110231.484000", "110233.484000", "110235.484000", "110237.484000", "110239.484000", "110241.484000", "110242.984000", "110245.484000", "110247.484000", "110249.484000", "110251.484000", "110253.484000", "110255.484000", "110257.484000", "110259.484000", "110301.484000", "110303.484000", "110305.484000", "110307.484000", "110309.484000", "110311.484000", "110313.484000", "110314.984000", "110317.484000", "110319.484000", "110321.484000", "110323.484000", "110325.484000", "110327.484000", "110329.484000", "110331.484000", "110333.484000", "110335.484000", "110337.484000", "110339.484000", "110341.484000", "110343.484000", "110345.484000", "110346.984000", "110349.484000", "110351.484000", "110353.484000", "110355.484000", "110357.484000", "110359.484000", "110401.484000", "110403.484000", "110405.484000", "110407.484000", "110409.484000", "110411.484000", "110413.484000", "110415.484000", "110417.484000", "110419.484000", "110421.484000", "110423.484000", "110425.484000", "110427.484000", "110429.484000", "110431.484000", "110433.484000", "110435.484000", "110437.484000", "110439.484000", "110441.484000", "110443.484000", "110445.484000", "110447.484000", "110449.484000", "110451.484000", "110453.484000", "110454.984000"],
      "InstanceCreationTime": ["105757.484000", "105759.484000", "105801.484000", "105803.484000", "105805.484000", "105807.484000", "105809.484000", "105811.484000", "105813.484000", "105815.484000", "105817.484000", "105819.484000", "105821.484000", "105823.484000", "105825.484000", "105826.984000", "105829.484000", "105831.484000", "105833.484000", "105835.484000", "105837.484000", "105839.484000", "105841.484000", "105843.484000", "105845.484000", "105847.484000", "105849.484000", "105851.484000", "105853.484000", "105855.484000", "105857.484000", "105858.984000", "105901.484000", "105903.484000", "105905.484000", "105907.484000", "105909.484000", "105911.484000", "105913.484000", "105915.484000", "105917.484000", "105919.484000", "105921.484000", "105923.484000", "105925.484000", "105927.484000", "105929.484000", "105930.984000", "105933.484000", "105935.484000", "105937.484000", "105939.484000", "105941.484000", "105943.484000", "105945.484000", "105947.484000", "105949.484000", "105951.484000", "105953.484000", "105955.484000", "105957.484000", "105959.484000", "110001.484000", "110002.984000", "110005.484000", "110007.484000", "110009.484000", "110011.484000", "110013.484000", "110015.484000", "110017.484000", "110019.484000", "110021.484000", "110023.484000", "110025.484000", "110027.484000", "110029.484000", "110031.484000", "110033.484000", "110035.484000", "110037.484000", "110039.484000", "110041.484000", "110043.484000", "110045.484000", "110047.484000", "110049.484000", "110051.484000", "110053.484000", "110055.484000", "110057.484000", "110059.484000", "110101.484000", "110103.484000", "110105.484000", "110106.984000", "110109.484000", "110111.484000", "110113.484000", "110115.484000", "110117.484000", "110119.484000", "110121.484000", "110123.484000", "110125.484000", "110127.484000", "110129.484000", "110131.484000", "110133.484000", "110135.484000", "110137.484000", "110138.984000", "110141.484000", "110143.484000", "110145.484000", "110147.484000", "110149.484000", "110151.484000", "110153.484000", "110155.484000", "110157.484000", "110159.484000", "110201.484000", "110203.484000", "110205.484000", "110207.484000", "110209.484000", "110210.984000", "110213.484000", "110215.484000", "110217.484000", "110219.484000", "110221.484000", "110223.484000", "110225.484000", "110227.484000", "110229.484000", "110231.484000", "110233.484000", "110235.484000", "110237.484000", "110239.484000", "110241.484000", "110242.984000", "110245.484000", "110247.484000", "110249.484000", "110251.484000", "110253.484000", "110255.484000", "110257.484000", "110259.484000", "110301.484000", "110303.484000", "110305.484000", "110307.484000", "110309.484000", "110311.484000", "110313.484000", "110314.984000", "110317.484000", "110319.484000", "110321.484000", "110323.484000", "110325.484000", "110327.484000", "110329.484000", "110331.484000", "110333.484000", "110335.484000", "110337.484000", "110339.484000", "110341.484000", "110343.484000", "110345.484000", "110346.984000", "110349.484000", "110351.484000", "110353.484000", "110355.484000", "110357.484000", "110359.484000", "110401.484000", "110403.484000", "110405.484000", "110407.484000", "110409.484000", "110411.484000", "110413.484000", "110415.484000", "110417.484000", "110419.484000", "110421.484000", "110423.484000", "110425.484000", "110427.484000", "110429.484000", "110431.484000", "110433.484000", "110435.484000", "110437.484000", "110439.484000", "110441.484000", "110443.484000", "110445.484000", "110447.484000", "110449.484000", "110451.484000", "110453.484000", "110454.984000"],
      "InstanceNumber": [1, 2, 3, 4, 5, 6, 7, 8, 9, 10, 11, 12, 13, 14, 15, 16, 17, 18, 19, 20, 21, 22, 23, 24, 25, 26, 27, 28, 29, 30, 31, 32, 33, 34, 35, 36, 37, 38, 39, 40, 41, 42, 43, 44, 45, 46, 47, 48, 49, 50, 51, 52, 53, 54, 55, 56, 57, 58, 59, 60, 61, 62, 63, 64, 65, 66, 67, 68, 69, 70, 71, 72, 73, 74, 75, 76, 77, 78, 79, 80, 81, 82, 83, 84, 85, 86, 87, 88, 89, 90, 91, 92, 93, 94, 95, 96, 97, 98, 99, 100, 101, 102, 103, 104, 105, 106, 107, 108, 109, 110, 111, 112, 113, 114, 115, 116, 117, 118, 119, 120, 121, 122, 123, 124, 125, 126, 127, 128, 129, 130, 131, 132, 133, 134, 135, 136, 137, 138, 139, 140, 141, 142, 143, 144, 145, 146, 147, 148, 149, 150, 151, 152, 153, 154, 155, 156, 157, 158, 159, 160, 161, 162, 163, 164, 165, 166, 167, 168, 169, 170, 171, 172, 173, 174, 175, 176, 177, 178, 179, 180, 181, 182, 183, 184, 185, 186, 187, 188, 189, 190, 191, 192, 193, 194, 195, 196, 197, 198, 199, 200, 201, 202, 203, 204, 205, 206, 207, 208, 209, 210],
      "LargestImagePixelValue": [2102, 1980, 1949, 1903, 1911, 1905, 1921, 1917, 1920, 1937, 1920, 1931, 1927, 1908, 1932, 1915, 1903, 1918, 1915, 1921, 1923, 1916, 1928, 1913, 1902, 1917, 1894, 1909, 1926, 1915, 1916, 1929, 2007, 1929, 1919, 1898, 1938, 1913, 1932, 1919, 1931, 1928, 1915, 1999, 1919, 1929, 1933, 1926, 1905, 1940, 1908, 1914, 1945, 1920, 1921, 1914, 1935, 1932, 1913, 1934, 1906, 1901, 1913, 1904, 1910, 1906, 1916, 1909, 1928, 1910, 1917, 1923, 2154, 1910, 1917, 1920, 1929, 1904, 1912, 1920, 1911, 1910, 1929, 1923, 1913, 1909, 1909, 1997, 1914, 1910, 1906, 1923, 1923, 1909, 1929, 1910, 1927, 1911, 1903, 1927, 1904, 1915, 1905, 1907, 1912, 2220, 1921, 1912, 1917, 1936, 1922, 1904, 1895, 1918, 1927, 1903, 1914, 1920, 1907, 1910, 1915, 1922, 1916, 1923, 1909, 1905, 1926, 1973, 1921, 1909, 1919, 1914, 1960, 1932, 1912, 1917, 1940, 1930, 1927, 1911, 1929, 1925, 1902, 1934, 1925, 1915, 1923, 1932, 1920, 1916, 1924, 1925, 1917, 1945, 1920, 1947, 1937, 1953, 1953, 1947, 1932, 1936, 1932, 1940, 1945, 1945, 1925, 1950, 1932, 1914, 1924, 1947, 1949, 1947, 1951, 1955, 1954, 1961, 1972, 1959, 1947, 1940, 1948, 1915, 1967, 1958, 1955, 1939, 1952, 1960, 1959, 1931, 1942, 1948, 1967, 1950, 1971, 1955, 1962, 1964, 1962, 1943, 1974, 1935, 1962, 1973, 1976, 1993, 1957, 1971],
      "WindowCenter": [764.0, 758.0, 756.0, 754.0, 753.0, 753.0, 753.0, 752.0, 751.0, 751.0, 751.0, 752.0, 752.0, 751.0, 751.0, 751.0, 751.0, 752.0, 752.0, 752.0, 752.0, 751.0, 751.0, 751.0, 752.0, 752.0, 751.0, 751.0, 752.0, 752.0, 752.0, 752.0, 753.0, 753.0, 752.0, 752.0, 752.0, 751.0, 751.0, 752.0, 753.0, 752.0, 751.0, 751.0, 751.0, 751.0, 751.0, 751.0, 751.0, 751.0, 751.0, 751.0, 751.0, 751.0, 751.0, 751.0, 752.0, 752.0, 750.0, 751.0, 751.0, 751.0, 751.0, 750.0, 750.0, 750.0, 751.0, 751.0, 752.0, 752.0, 752.0, 752.0, 753.0, 752.0, 752.0, 752.0, 752.0, 752.0, 751.0, 752.0, 752.0, 752.0, 752.0, 752.0, 754.0, 752.0, 751.0, 751.0, 752.0, 753.0, 752.0, 751.0, 751.0, 751.0, 751.0, 750.0, 751.0, 751.0, 751.0, 752.0, 751.0, 751.0, 750.0, 750.0, 750.0, 752.0, 751.0, 750.0, 750.0, 751.0, 751.0, 751.0, 750.0, 751.0, 751.0, 750.0, 751.0, 752.0, 752.0, 751.0, 750.0, 751.0, 751.0, 751.0, 751.0, 751.0, 751.0, 751.0, 750.0, 750.0, 750.0, 751.0, 752.0, 753.0, 753.0, 753.0, 752.0, 751.0, 751.0, 751.0, 753.0, 753.0, 752.0, 751.0, 750.0, 751.0, 752.0, 754.0, 753.0, 752.0, 751.0, 750.0, 751.0, 752.0, 752.0, 751.0, 751.0, 751.0, 751.0, 751.0, 752.0, 752.0, 751.0, 750.0, 750.0, 751.0, 751.0, 752.0, 751.0, 751.0, 751.0, 752.0, 752.0, 752.0, 753.0, 753.0, 753.0, 753.0, 753.0, 752.0, 752.0, 752.0, 752.0, 752.0, 753.0, 753.0, 753.0, 752.0, 752.0, 753.0, 753.0, 753.0, 752.0, 752.0, 752.0, 751.0, 752.0, 752.0, 752.0, 752.0, 752.0, 751.0, 752.0, 751.0, 751.0, 751.0, 751.0, 752.0, 752.0, 752.0],
      "WindowWidth": [1631.0, 1616.0, 1609.0, 1603.0, 1601.0, 1602.0, 1601.0, 1600.0, 1597.0, 1596.0, 1597.0, 1598.0, 1598.0, 1598.0, 1596.0, 1595.0, 1596.0, 1598.0, 1599.0, 1598.0, 1598.0, 1596.0, 1596.0, 1598.0, 1598.0, 1599.0, 1597.0, 1597.0, 1601.0, 1600.0, 1600.0, 1600.0, 1601.0, 1601.0, 1600.0, 1599.0, 1599.0, 1598.0, 1598.0, 1600.0, 1601.0, 1600.0, 1597.0, 1597.0, 1596.0, 1596.0, 1596.0, 1598.0, 1597.0, 1598.0, 1597.0, 1596.0, 1598.0, 1597.0, 1598.0, 1598.0, 1599.0, 1599.0, 1596.0, 1597.0, 1596.0, 1596.0, 1597.0, 1595.0, 1594.0, 1594.0, 1598.0, 1598.0, 1600.0, 1599.0, 1600.0, 1600.0, 1602.0, 1599.0, 1600.0, 1599.0, 1599.0, 1598.0, 1597.0, 1599.0, 1599.0, 1599.0, 1600.0, 1600.0, 1603.0, 1598.0, 1596.0, 1598.0, 1599.0, 1601.0, 1598.0, 1597.0, 1597.0, 1596.0, 1596.0, 1595.0, 1597.0, 1597.0, 1597.0, 1599.0, 1597.0, 1597.0, 1596.0, 1594.0, 1594.0, 1600.0, 1596.0, 1596.0, 1595.0, 1598.0, 1598.0, 1597.0, 1595.0, 1596.0, 1596.0, 1595.0, 1598.0, 1600.0, 1599.0, 1597.0, 1595.0, 1596.0, 1598.0, 1598.0, 1597.0, 1597.0, 1598.0, 1598.0, 1596.0, 1594.0, 1594.0, 1597.0, 1598.0, 1601.0, 1602.0, 1602.0, 1600.0, 1596.0, 1596.0, 1598.0, 1601.0, 1601.0, 1599.0, 1598.0, 1596.0, 1598.0, 1601.0, 1603.0, 1602.0, 1598.0, 1597.0, 1596.0, 1597.0, 1599.0, 1598.0, 1598.0, 1597.0, 1598.0, 1597.0, 1598.0, 1600.0, 1599.0, 1597.0, 1596.0, 1596.0, 1597.0, 1596.0, 1598.0, 1598.0, 1598.0, 1598.0, 1598.0, 1599.0, 1599.0, 1601.0, 1602.0, 1601.0, 1601.0, 1601.0, 1600.0, 1599.0, 1599.0, 1599.0, 1598.0, 1601.0, 1602.0, 1601.0, 1600.0, 1599.0, 1601.0, 1601.0, 1600.0, 1600.0, 1599.0, 1598.0, 1598.0, 1600.0, 1601.0, 1600.0, 1600.0, 1598.0, 1598.0, 1599.0, 1597.0, 1597.0, 1597.0, 1598.0, 1598.0, 1599.0, 1599.0]
    },
    "slices": {}
  }
}