{
  "AcquisitionMatrixPE": 64,
  "AcquisitionNumber": 1,
  "AcquisitionTime": "18:35:6.310000",
  "BaseResolution": 64,
  "BidsGuess": [
    "fmap",
    "_acq-fm2_phasediff"
  ],
  "CoilCombinationMethod": "Adaptive Combine",
  "CoilString": "C:HEA;HEP",
  "ConversionSoftware": "dcm2niix",
  "ConversionSoftwareVersion": "v1.0.20240202",
  "DeviceSerialNumber": "35119",
  "DwellTime": 0.00003,
  "EchoNumber": 2,
  "EchoTime": 0.00765,
  "EchoTime1": 0.00519,
  "EchoTime2": 0.00765,
  "FlipAngle": 60,
  "HeudiconvVersion": "1.1.6",
  "ImageComments": "V",
  "ImageOrientationPatientDICOM": [
    0.99996,
    -0.003279,
    -0.00833,
    0,
    0.930492,
    -0.366312
  ],
  "ImageOrientationText": "Tra>Cor(-21.5)>Sag(-0.5)",
  "ImageType": [
    "ORIGINAL",
    "PRIMARY",
    "P",
    "ND",
    "PHASE"
  ],
  "ImagingFrequency": 123.252081,
  "InPlanePhaseEncodingDirectionDICOM": "COL",
  "InstitutionAddress": "Chaucer Road  15,Cambridge,UK,GB,CB2 2EF",
  "InstitutionName": "MRC-CBU",
  "IntendedFor": [
    "ses-mri/func/sub-12_ses-mri_task-facerecognition_run-01_bold.nii.gz",
    "ses-mri/func/sub-12_ses-mri_task-facerecognition_run-02_bold.nii.gz",
    "ses-mri/func/sub-12_ses-mri_task-facerecognition_run-03_bold.nii.gz",
    "ses-mri/func/sub-12_ses-mri_task-facerecognition_run-04_bold.nii.gz",
    "ses-mri/func/sub-12_ses-mri_task-facerecognition_run-05_bold.nii.gz",
    "ses-mri/func/sub-12_ses-mri_task-facerecognition_run-06_bold.nii.gz",
    "ses-mri/func/sub-12_ses-mri_task-facerecognition_run-07_bold.nii.gz",
    "ses-mri/func/sub-12_ses-mri_task-facerecognition_run-08_bold.nii.gz",
    "ses-mri/func/sub-12_ses-mri_task-facerecognition_run-09_bold.nii.gz"
  ],
  "MRAcquisitionType": "2D",
  "MagneticFieldStrength": 3,
  "Manufacturer": "Siemens",
  "ManufacturersModelName": "TrioTim",
  "MatrixCoilMode": "SENSE",
  "Modality": "MR",
  "NonlinearGradientCorrection": false,
  "PartialFourier": 1,
  "PatientPosition": "HFS",
  "PercentPhaseFOV": 100,
  "PercentSampling": 100,
  "PhaseEncodingDirection": "j-",
  "PhaseEncodingSteps": 64,
  "PhaseResolution": 1,
  "PixelBandwidth": 260,
  "ProcedureStepDescription": "CBU^Neuroimaging",
  "ProtocolName": "CBU_FieldMapping",
  "PulseSequenceDetails": "%SiemensSeq%\\gre_field_mapping",
  "ReceiveCoilName": "HeadMatrix",
  "ReconMatrixPE": 64,
  "RepetitionTime": 0.4,
  "SAR": 0.195052,
  "ScanningSequence": "GR",
  "SequenceName": "*fm2d2r",
  "SequenceVariant": "SP",
  "SeriesDescription": "CBU_FieldMapping",
  "SeriesNumber": 13,
  "ShimSetting": [
    -7844,
    -8614,
    -2373,
    974,
    -97,
    784,
    -344,
    -35
  ],
  "SliceThickness": 3,
  "SliceTiming": [
    0,
    0.20312,
    0.01562,
    0.21875,
    0.01562,
    0.23438,
    0.03125,
    0.25,
    0.04688,
    0.25,
    0.0625,
    0.26562,
    0.07812,
    0.28125,
    0.07812,
    0.29688,
    0.09375,
    0.29688,
    0.10938,
    0.3125,
    0.125,
    0.32812,
    0.125,
    0.34375,
    0.14062,
    0.34375,
    0.15625,
    0.35938,
    0.17188,
    0.375,
    0.1875,
    0.39062,
    0.1875
  ],
  "SoftwareVersions": "syngo MR B15",
  "SpacingBetweenSlices": 3.75,
  "StationName": "MRC35119",
  "TxRefAmp": 312.996,
  "dcmmeta_affine": [
    [
      -2.999880075454712,
      0.0,
      -0.033569999039173126,
      95.7728500366211
    ],
    [
      0.009836999699473381,
      2.791476011276245,
      -1.3736129999160767,
      -62.955299377441406
    ],
    [
      -0.02498999983072281,
      1.0989359617233276,
      3.489203929901123,
      -73.01433563232422
    ],
    [
      0.0,
      0.0,
      0.0,
      1.0
    ]
  ],
  "dcmmeta_reorient_transform": [
    [
      0.0,
      -1.0,
      0.0,
      63.0
    ],
    [
      1.0,
      0.0,
      0.0,
      0.0
    ],
    [
      0.0,
      0.0,
      -1.0,
      32.0
    ],
    [
      0.0,
      0.0,
      0.0,
      1.0
    ]
  ],
  "dcmmeta_shape": [
    64,
    64,
    33
  ],
  "dcmmeta_slice_dim": 2,
  "dcmmeta_version": 0.6,
  "global": {
    "const": {
      "AcquisitionMatrix": [
        64,
        0,
        0,
        64
      ],
      "AcquisitionNumber": 1,
      "AngioFlag": "N",
      "BitsAllocated": 16,
      "BitsStored": 12,
      "Columns": 64,
      "EchoNumbers": 2,
      "EchoTime": 7.65,
      "EchoTrainLength": 1,
      "FlipAngle": 60.0,
      "HighBit": 11,
      "ImageOrientationPatient": [
        0.99996,
        -0.003279,
        -0.00833,
        0.0,
        0.930492,
        -0.366312
      ],
      "ImageType": [
        "ORIGINAL",
        "PRIMARY",
        "P",
        "ND"
      ],
      "ImagedNucleus": "1H",
      "ImagingFrequency": 123.252081,
      "InPlanePhaseEncodingDirection": "COL",
      "MRAcquisitionType": "2D",
      "MagneticFieldStrength": 3.0,
      "Manufacturer": "SIEMENS",
      "ManufacturerModelName": "TrioTim",
      "Modality": "MR",
      "NumberOfAverages": 1.0,
      "NumberOfPhaseEncodingSteps": 64,
      "PercentPhaseFieldOfView": 100.0,
      "PercentSampling": 100.0,
      "PerformedProcedureStepStartTime": "171511.593000",
      "PhotometricInterpretation": "MONOCHROME2",
      "PixelAspectRatio": [
        1,
        1
      ],
      "PixelBandwidth": 260.0,
      "PixelRepresentation": 0,
      "PixelSpacing": [
        3.0,
        3.0
      ],
      "ProtocolName": "CBU_FieldMapping",
      "RepetitionTime": 400.0,
      "RescaleIntercept": -4096.0,
      "RescaleSlope": 2.0,
      "RescaleType": "US",
      "Rows": 64,
      "SAR": 0.195052,
      "SamplesPerPixel": 1,
      "ScanningSequence": "GR",
      "SequenceName": "*fm2d2r",
      "SequenceVariant": "SP",
      "SeriesDescription": "CBU_FieldMapping",
      "SeriesNumber": 13,
      "SeriesTime": "183559.875000",
      "SliceThickness": 3.0,
      "SoftwareVersions": "syngo MR B15",
      "SpacingBetweenSlices": 3.75,
      "SpecificCharacterSet": "ISO_IR 100",
      "StudyID": "1",
      "StudyTime": "171511.437000",
      "TransmitCoilName": "Body",
      "VariableFlipAngleFlag": "N",
      "WindowCenterWidthExplanation": "Algo1",
      "dBdt": 0.0
    },
    "slices": {
      "AcquisitionTime": [
        "183506.310000",
        "183506.517500",
        "183506.322500",
        "183506.530000",
        "183506.335000",
        "183506.542500",
        "183506.347500",
        "183506.555000",
        "183506.360000",
        "183506.567500",
        "183506.372500",
        "183506.577500",
        "183506.385000",
        "183506.590000",
        "183506.395000",
        "183506.602500",
        "183506.407500",
        "183506.615000",
        "183506.420000",
        "183506.627500",
        "183506.432500",
        "183506.640000",
        "183506.445000",
        "183506.652500",
        "183506.457500",
        "183506.662500",
        "183506.470000",
        "183506.675000",
        "183506.480000",
        "183506.687500",
        "183506.492500",
        "183506.700000",
        "183506.505000"
      ],
      "ContentTime": [
        "183559.890000",
        "183600.359000",
        "183559.906000",
        "183600.359000",
        "183559.953000",
        "183600.375000",
        "183559.953000",
        "183600.375000",
        "183559.953000",
        "183600.390000",
        "183559.968000",
        "183600.390000",
        "183559.968000",
        "183600.406000",
        "183559.984000",
        "183600.406000",
        "183559.984000",
        "183600.421000",
        "183600.000000",
        "183600.421000",
        "183600.000000",
        "183600.421000",
        "183600.000000",
        "183600.437000",
        "183600.015000",
        "183600.437000",
        "183600.015000",
        "183600.453000",
        "183600.015000",
        "183600.453000",
        "183600.031000",
        "183600.531000",
        "183600.343000"
      ],
      "CsaImage.GSWDDataType": [
        "predicted",
        "measured",
        "predicted",
        "measured",
        "predicted",
        "measured",
        "predicted",
        "measured",
        "predicted",
        "measured",
        "predicted",
        "measured",
        "predicted",
        "measured",
        "measured",
        "measured",
        "measured",
        "measured",
        "measured",
        "measured",
        "measured",
        "measured",
        "measured",
        "measured",
        "measured",
        "measured",
        "measured",
        "measured",
        "measured",
        "measured",
        "measured",
        "measured",
        "measured"
      ],
      "CsaImage.ICE_Dims": [
        "X_2_1_1_1_1_1_1_1_1_1_1_146",
        "X_2_1_1_1_1_1_18_1_1_2_1_146",
        "X_2_1_1_1_1_1_2_1_1_3_1_146",
        "X_2_1_1_1_1_1_19_1_1_4_1_146",
        "X_2_1_1_1_1_1_3_1_1_5_1_146",
        "X_2_1_1_1_1_1_20_1_1_6_1_146",
        "X_2_1_1_1_1_1_4_1_1_7_1_146",
        "X_2_1_1_1_1_1_21_1_1_8_1_146",
        "X_2_1_1_1_1_1_5_1_1_9_1_146",
        "X_2_1_1_1_1_1_22_1_1_10_1_146",
        "X_2_1_1_1_1_1_6_1_1_11_1_146",
        "X_2_1_1_1_1_1_23_1_1_12_1_146",
        "X_2_1_1_1_1_1_7_1_1_13_1_146",
        "X_2_1_1_1_1_1_24_1_1_14_1_146",
        "X_2_1_1_1_1_1_8_1_1_15_1_146",
        "X_2_1_1_1_1_1_25_1_1_16_1_146",
        "X_2_1_1_1_1_1_9_1_1_17_1_146",
        "X_2_1_1_1_1_1_26_1_1_18_1_146",
        "X_2_1_1_1_1_1_10_1_1_19_1_146",
        "X_2_1_1_1_1_1_27_1_1_20_1_146",
        "X_2_1_1_1_1_1_11_1_1_21_1_146",
        "X_2_1_1_1_1_1_28_1_1_22_1_146",
        "X_2_1_1_1_1_1_12_1_1_23_1_146",
        "X_2_1_1_1_1_1_29_1_1_24_1_146",
        "X_2_1_1_1_1_1_13_1_1_25_1_146",
        "X_2_1_1_1_1_1_30_1_1_26_1_146",
        "X_2_1_1_1_1_1_14_1_1_27_1_146",
        "X_2_1_1_1_1_1_31_1_1_28_1_146",
        "X_2_1_1_1_1_1_15_1_1_29_1_146",
        "X_2_1_1_1_1_1_32_1_1_30_1_146",
        "X_2_1_1_1_1_1_16_1_1_31_1_146",
        "X_2_1_1_1_1_1_33_1_1_32_1_146",
        "X_2_1_1_1_1_1_17_1_1_33_1_146"
      ],
      "CsaImage.ProtocolSliceNumber": [
        0,
        1,
        2,
        3,
        4,
        5,
        6,
        7,
        8,
        9,
        10,
        11,
        12,
        13,
        14,
        15,
        16,
        17,
        18,
        19,
        20,
        21,
        22,
        23,
        24,
        25,
        26,
        27,
        28,
        29,
        30,
        31,
        32
      ],
      "CsaImage.RFSWDDataType": [
        "predicted",
        "measured",
        "predicted",
        "measured",
        "predicted",
        "measured",
        "predicted",
        "measured",
        "predicted",
        "measured",
        "predicted",
        "measured",
        "predicted",
        "measured",
        "measured",
        "measured",
        "measured",
        "measured",
        "measured",
        "measured",
        "measured",
        "measured",
        "measured",
        "measured",
        "measured",
        "measured",
        "measured",
        "measured",
        "measured",
        "measured",
        "measured",
        "measured",
        "measured"
      ],
      "CsaImage.SliceMeasurementDuration": [
        50602.5,
        50602.5,
        50602.5,
        50602.5,
        50602.5,
        50602.5,
        50602.5,
        50602.5,
        50602.5,
        50600.0,
        50602.5,
        50602.5,
        50600.0,
        50602.5,
        50602.5,
        50602.5,
        50602.5,
        50602.5,
        50602.5,
        50602.5,
        50602.5,
        50602.5,
        50602.5,
        50602.5,
        50602.5,
        50602.5,
        50602.5,
        50602.5,
        50602.5,
        50602.5,
        50602.5,
        50602.5,
        50602.5
      ],
      "CsaImage.SlicePosition_PCS": [
        [
          -95.77286233,
          -112.90772684,
          -3.78142396
        ],
        [
          -95.73929187,
          -111.53411348,
          -0.29221956
        ],
        [
          -95.70572143,
          -110.16049822,
          3.19698485
        ],
        [
          -95.67215099,
          -108.78688486,
          6.68619307
        ],
        [
          -95.63858053,
          -107.41326959,
          10.17539748
        ],
        [
          -95.60501009,
          -106.03965624,
          13.66460379
        ],
        [
          -95.57143965,
          -104.66604192,
          17.15381011
        ],
        [
          -95.53786918,
          -103.29242761,
          20.64301547
        ],
        [
          -95.50429874,
          -101.9188133,
          24.13222083
        ],
        [
          -95.4707283,
          -100.54519899,
          27.62142714
        ],
        [
          -95.43715783,
          -99.17158468,
          31.1106325
        ],
        [
          -95.40358743,
          -97.79797037,
          34.59983846
        ],
        [
          -95.37001696,
          -96.42435606,
          38.08904418
        ],
        [
          -95.33644649,
          -95.05074175,
          41.57825001
        ],
        [
          -95.30287608,
          -93.67712743,
          45.06745585
        ],
        [
          -95.26930561,
          -92.30351312,
          48.55666121
        ],
        [
          -95.23573514,
          -90.92989893,
          52.04586753
        ],
        [
          -95.20216473,
          -89.55628468,
          55.53507384
        ],
        [
          -95.16859427,
          -88.18267043,
          59.02427825
        ],
        [
          -95.1350238,
          -86.80905612,
          62.51348456
        ],
        [
          -95.10145339,
          -85.43544181,
          66.00269087
        ],
        [
          -95.06788292,
          -84.06182773,
          69.49189528
        ],
        [
          -95.03431251,
          -82.68821342,
          72.9811035
        ],
        [
          -95.00074204,
          -81.31459911,
          76.47030791
        ],
        [
          -94.96717163,
          -79.94098528,
          79.95951232
        ],
        [
          -94.93360111,
          -78.56737096,
          83.44872054
        ],
        [
          -94.9000307,
          -77.19375665,
          86.93792494
        ],
        [
          -94.86646029,
          -75.82014234,
          90.42712935
        ],
        [
          -94.83288976,
          -74.44652803,
          93.91633757
        ],
        [
          -94.79931935,
          -73.07291372,
          97.40554198
        ],
        [
          -94.76574894,
          -71.69929941,
          100.8947502
        ],
        [
          -94.73217841,
          -70.32568414,
          104.38395461
        ],
        [
          -94.69860801,
          -68.95207079,
          107.87315901
        ]
      ],
      "CsaImage.TimeAfterStart": [
        0.4025,
        0.61,
        0.415,
        0.6225,
        0.4275,
        0.635,
        0.44,
        0.6475,
        0.4525,
        0.66,
        0.465,
        0.6725,
        0.4775,
        0.6825,
        0.49,
        0.695,
        0.5,
        0.7075,
        0.5125,
        0.72,
        0.525,
        0.7325,
        0.5375,
        0.745,
        0.55,
        0.7575,
        0.5625,
        0.7675,
        0.575,
        0.78,
        0.585,
        0.7925,
        0.5975
      ],
      "ImagePositionPatient": [
        [
          -95.772862,
          -112.907727,
          -3.781424
        ],
        [
          -95.739292,
          -111.534113,
          -0.29222
        ],
        [
          -95.705721,
          -110.160498,
          3.196985
        ],
        [
          -95.672151,
          -108.786885,
          6.686193
        ],
        [
          -95.638581,
          -107.41327,
          10.175397
        ],
        [
          -95.60501,
          -106.039656,
          13.664604
        ],
        [
          -95.57144,
          -104.666042,
          17.15381
        ],
        [
          -95.537869,
          -103.292428,
          20.643015
        ],
        [
          -95.504299,
          -101.918813,
          24.132221
        ],
        [
          -95.470728,
          -100.545199,
          27.621427
        ],
        [
          -95.437158,
          -99.171585,
          31.110633
        ],
        [
          -95.403587,
          -97.79797,
          34.599838
        ],
        [
          -95.370017,
          -96.424356,
          38.089044
        ],
        [
          -95.336446,
          -95.050742,
          41.57825
        ],
        [
          -95.302876,
          -93.677127,
          45.067456
        ],
        [
          -95.269306,
          -92.303513,
          48.556661
        ],
        [
          -95.235735,
          -90.929899,
          52.045868
        ],
        [
          -95.202165,
          -89.556285,
          55.535074
        ],
        [
          -95.168594,
          -88.18267,
          59.024278
        ],
        [
          -95.135024,
          -86.809056,
          62.513485
        ],
        [
          -95.101453,
          -85.435442,
          66.002691
        ],
        [
          -95.067883,
          -84.061828,
          69.491895
        ],
        [
          -95.034313,
          -82.688213,
          72.981104
        ],
        [
          -95.000742,
          -81.314599,
          76.470308
        ],
        [
          -94.967172,
          -79.940985,
          79.959512
        ],
        [
          -94.933601,
          -78.567371,
          83.448721
        ],
        [
          -94.900031,
          -77.193757,
          86.937925
        ],
        [
          -94.86646,
          -75.820142,
          90.427129
        ],
        [
          -94.83289,
          -74.446528,
          93.916338
        ],
        [
          -94.799319,
          -73.072914,
          97.405542
        ],
        [
          -94.765749,
          -71.699299,
          100.89475
        ],
        [
          -94.732178,
          -70.325684,
          104.383955
        ],
        [
          -94.698608,
          -68.952071,
          107.873159
        ]
      ],
      "InstanceCreationTime": [
        "183559.890000",
        "183600.359000",
        "183559.906000",
        "183600.359000",
        "183559.953000",
        "183600.375000",
        "183559.953000",
        "183600.375000",
        "183559.953000",
        "183600.390000",
        "183559.968000",
        "183600.390000",
        "183559.968000",
        "183600.406000",
        "183559.984000",
        "183600.406000",
        "183559.984000",
        "183600.421000",
        "183600.000000",
        "183600.421000",
        "183600.000000",
        "183600.421000",
        "183600.000000",
        "183600.437000",
        "183600.015000",
        "183600.437000",
        "183600.015000",
        "183600.453000",
        "183600.015000",
        "183600.453000",
        "183600.031000",
        "183600.531000",
        "183600.343000"
      ],
      "InstanceNumber": [
        1,
        2,
        3,
        4,
        5,
        6,
        7,
        8,
        9,
        10,
        11,
        12,
        13,
        14,
        15,
        16,
        17,
        18,
        19,
        20,
        21,
        22,
        23,
        24,
        25,
        26,
        27,
        28,
        29,
        30,
        31,
        32,
        33
      ],
      "LargestImagePixelValue": [
        4092,
        4092,
        4089,
        4091,
        4089,
        4089,
        4090,
        4088,
        4079,
        4092,
        4086,
        4093,
        4090,
        4091,
        4094,
        4086,
        4094,
        4088,
        4093,
        4093,
        4094,
        4081,
        4088,
        4092,
        4091,
        4094,
        4093,
        4093,
        4086,
        4089,
        4089,
        4092,
        4094
      ],
      "SliceLocation": [
        -45.733594,
        -41.983596,
        -38.233597,
        -34.483595,
        -30.733596,
        -26.983596,
        -23.233595,
        -19.483595,
        -15.733596,
        -11.983595,
        -8.233596,
        -4.483595,
        -0.733596,
        3.016405,
        6.766405,
        10.516404,
        14.266405,
        18.016405,
        21.766404,
        25.516405,
        29.266405,
        33.016404,
        36.766406,
        40.516405,
        44.266403,
        48.016406,
        51.766404,
        55.516403,
        59.266405,
        63.016404,
        66.766407,
        70.516406,
        74.266404
      ],
      "SmallestImagePixelValue": [
        4,
        1,
        4,
        3,
        0,
        0,
        7,
        0,
        10,
        3,
        9,
        1,
        3,
        11,
        1,
        4,
        5,
        4,
        6,
        10,
        4,
        16,
        15,
        1,
        1,
        6,
        4,
        0,
        10,
        0,
        2,
        3,
        1
      ],
      "WindowCenter": [
        -446.0,
        -430.0,
        -416.0,
        -452.0,
        -402.0,
        -416.0,
        -438.0,
        -464.0,
        -412.0,
        -272.0,
        -204.0,
        -126.0,
        -80.0,
        -52.0,
        -60.0,
        -50.0,
        -42.0,
        -52.0,
        -56.0,
        -40.0,
        -32.0,
        -64.0,
        -76.0,
        -94.0,
        -104.0,
        -140.0,
        -200.0,
        -266.0,
        -318.0,
        -376.0,
        -370.0,
        -412.0,
        -350.0
      ],
      "WindowWidth": [
        4676.0,
        4552.0,
        4470.0,
        4430.0,
        4350.0,
        4308.0,
        4206.0,
        4128.0,
        4098.0,
        4046.0,
        4058.0,
        4058.0,
        4094.0,
        4096.0,
        4162.0,
        4172.0,
        4192.0,
        4236.0,
        4264.0,
        4282.0,
        4292.0,
        4308.0,
        4346.0,
        4384.0,
        4398.0,
        4462.0,
        4500.0,
        4606.0,
        4650.0,
        4706.0,
        4748.0,
        4882.0,
        5000.0
      ]
    }
  }
}
