{
  "AcquisitionMatrixPE": 64,
  "AcquisitionNumber": 1,
  "AcquisitionTime": "14:43:38.447500",
  "BandwidthPerPixelPhaseEncode": 30.637,
  "BaseResolution": 64,
  "BidsGuess": [
    "func",
    "_acq-epfid2_dir-AP_run-8_bold"
],
  "CoilCombinationMethod": "Sum of Squares",
  "CoilString": "C:HEA;HEP",
  "ConversionSoftware": "dcm2niix",
  "ConversionSoftwareVersion": "v1.0.20240202",
  "DerivedVendorReportedEchoSpacing": 0.000510004,
  "DeviceSerialNumber": "35119",
  "DwellTime": 3.5e-06,
  "EchoTime": 0.03,
  "EffectiveEchoSpacing": 0.000510004,
  "FlipAngle": 78,
  "HeudiconvVersion": "1.1.6",
  "ImageComments": "V",
  "ImageOrientationPatientDICOM": [0.999178, 0.025661, 0.03138, 0, 0.774114, -0.633046],
  "ImageOrientationText": "Tra>Cor(-39.3)>Sag(2.3)",
  "ImageType": [
    "ORIGINAL",
    "PRIMARY",
    "M",
    "ND",
    "MOSAIC"
],
  "ImagingFrequency": 123.251786,
  "InPlanePhaseEncodingDirectionDICOM": "COL",
  "InstitutionAddress": "Chaucer Road  15,Cambridge,UK,GB,CB2 2EF",
  "InstitutionName": "MRC-CBU",
  "MRAcquisitionType": "2D",
  "MagneticFieldStrength": 3,
  "Manufacturer": "Siemens",
  "ManufacturersModelName": "TrioTim",
  "MatrixCoilMode": "SENSE",
  "Modality": "MR",
  "NonlinearGradientCorrection": false,
  "PartialFourier": 1,
  "PatientPosition": "HFS",
  "PercentPhaseFOV": 100,
  "PercentSampling": 100,
  "PhaseEncodingDirection": "j-",
  "PhaseEncodingSteps": 64,
  "PhaseResolution": 1,
  "PixelBandwidth": 2230,
  "ProcedureStepDescription": "CBU^Neuroimaging",
  "ProtocolName": "CBU_DWEPI_BOLD210",
  "PulseSequenceDetails": "%SiemensSeq%\\ep2d_bold",
  "ReceiveCoilName": "HeadMatrix",
  "ReconMatrixPE": 64,
  "RepetitionTime": 2,
  "SAR": 0.177458,
  "ScanOptions": "FS",
  "ScanningSequence": "EP",
  "SequenceName": "*epfid2d1_64",
  "SequenceVariant": "SK",
  "SeriesDescription": "CBU_DWEPI_BOLD210",
  "SeriesNumber": 8,
  "ShimSetting": [-7754, -8791, -2016, 580, 113, 67, -86, 23],
  "SliceThickness": 3,
  "SliceTiming": [0, 1.035, 0.0625, 1.095, 0.1225, 1.1575, 0.1825, 1.2175, 0.245, 1.2775, 0.305, 1.34, 0.365, 1.4, 0.4275, 1.46, 0.4875, 1.5225, 0.5475, 1.5825, 0.61, 1.6425, 0.67, 1.705, 0.73, 1.765, 0.7925, 1.825, 0.8525, 1.8875, 0.9125, 1.9475, 0.975],
  "SoftwareVersions": "syngo MR B15",
  "SpacingBetweenSlices": 3.9,
  "StationName": "MRC35119",
  "TaskName": "faceprocessing",
  "TotalReadoutTime": 0.0321303,
  "TxRefAmp": 353.369,
  "dcmmeta_affine": [
    [-2.9975340366363525, 0.0, 0.15809153020381927, 98.53073120117188],
    [-0.0769829973578453, 2.3223419189453125, -2.4668500423431396, -26.370988845825195],
    [0.09414000064134598, 1.8991379737854004, 3.0165629386901855, -84.90180206298828],
    [0.0, 0.0, 0.0, 1.0]
],
  "dcmmeta_reorient_transform": [
    [0.0, -1.0, 0.0, 63.0],
    [1.0, 0.0, 0.0, 0.0],
    [0.0, 0.0, 1.0, 0.0],
    [0.0, 0.0, 0.0, 1.0]
],
  "dcmmeta_shape": [64, 64, 33, 210],
  "dcmmeta_slice_dim": 2,
  "dcmmeta_version": 0.6,
  "global": {
    "const": {
      "AcquisitionMatrix": [64, 0, 0, 64],
      "AngioFlag": "N",
      "BitsAllocated": 16,
      "BitsStored": 12,
      "Columns": 384,
      "EchoNumbers": 1,
      "EchoTime": 30.0,
      "EchoTrainLength": 1,
      "FlipAngle": 78.0,
      "HighBit": 11,
      "ImageOrientationPatient": [0.999178, 0.025661, 0.03138, -0.0, 0.774114, -0.633046],
      "ImagePositionPatient": [-578.136169, -503.828558, 323.543572],
      "ImageType": [
        "ORIGINAL",
        "PRIMARY",
        "M",
        "ND",
        "MOSAIC"
],
      "ImagedNucleus": "1H",
      "ImagingFrequency": 123.251786,
      "InPlanePhaseEncodingDirection": "COL",
      "MRAcquisitionType": "2D",
      "MagneticFieldStrength": 3.0,
      "Manufacturer": "SIEMENS",
      "ManufacturerModelName": "TrioTim",
      "Modality": "MR",
      "NumberOfAverages": 1.0,
      "NumberOfPhaseEncodingSteps": 64,
      "PercentPhaseFieldOfView": 100.0,
      "PercentSampling": 100.0,
      "PerformedProcedureStepStartTime": "135553.812000",
      "PhotometricInterpretation": "MONOCHROME2",
      "PixelAspectRatio": [1, 1],
      "PixelBandwidth": 2230.0,
      "PixelRepresentation": 0,
      "PixelSpacing": [3.0, 3.0],
      "ProtocolName": "CBU_DWEPI_BOLD210",
      "RepetitionTime": 2000.0,
      "Rows": 384,
      "SAR": 0.177458,
      "SamplesPerPixel": 1,
      "ScanOptions": "FS",
      "ScanningSequence": "EP",
      "SequenceName": "*epfid2d1_64",
      "SequenceVariant": "SK",
      "SeriesDescription": "CBU_DWEPI_BOLD210",
      "SeriesNumber": 8,
      "SeriesTime": "144341.781000",
      "SliceLocation": -44.994972,
      "SliceThickness": 3.0,
      "SmallestImagePixelValue": 0,
      "SoftwareVersions": "syngo MR B15",
      "SpacingBetweenSlices": 3.9,
      "SpecificCharacterSet": "ISO_IR 100",
      "StudyID": "1",
      "StudyTime": "135553.640000",
      "TransmitCoilName": "Body",
      "VariableFlipAngleFlag": "N",
      "WindowCenterWidthExplanation": "Algo1",
      "dBdt": 0.0},
    "slices": {}
  },
  "time": {
    "samples": {
      "AcquisitionNumber": [1, 2, 3, 4, 5, 6, 7, 8, 9, 10, 11, 12, 13, 14, 15, 16, 17, 18, 19, 20, 21, 22, 23, 24, 25, 26, 27, 28, 29, 30, 31, 32, 33, 34, 35, 36, 37, 38, 39, 40, 41, 42, 43, 44, 45, 46, 47, 48, 49, 50, 51, 52, 53, 54, 55, 56, 57, 58, 59, 60, 61, 62, 63, 64, 65, 66, 67, 68, 69, 70, 71, 72, 73, 74, 75, 76, 77, 78, 79, 80, 81, 82, 83, 84, 85, 86, 87, 88, 89, 90, 91, 92, 93, 94, 95, 96, 97, 98, 99, 100, 101, 102, 103, 104, 105, 106, 107, 108, 109, 110, 111, 112, 113, 114, 115, 116, 117, 118, 119, 120, 121, 122, 123, 124, 125, 126, 127, 128, 129, 130, 131, 132, 133, 134, 135, 136, 137, 138, 139, 140, 141, 142, 143, 144, 145, 146, 147, 148, 149, 150, 151, 152, 153, 154, 155, 156, 157, 158, 159, 160, 161, 162, 163, 164, 165, 166, 167, 168, 169, 170, 171, 172, 173, 174, 175, 176, 177, 178, 179, 180, 181, 182, 183, 184, 185, 186, 187, 188, 189, 190, 191, 192, 193, 194, 195, 196, 197, 198, 199, 200, 201, 202, 203, 204, 205, 206, 207, 208, 209, 210],
      "AcquisitionTime": ["144338.447500", "144340.457500", "144342.465000", "144344.472500", "144346.480000", "144348.490000", "144350.497500", "144352.505000", "144354.512500", "144356.520000", "144358.530000", "144400.537500", "144402.545000", "144404.552500", "144406.560000", "144408.570000", "144410.577500", "144412.585000", "144414.592500", "144416.602500", "144418.610000", "144420.617500", "144422.625000", "144424.632500", "144426.642500", "144428.650000", "144430.657500", "144432.665000", "144434.672500", "144436.682500", "144438.690000", "144440.697500", "144442.705000", "144444.712500", "144446.722500", "144448.730000", "144450.737500", "144452.745000", "144454.755000", "144456.762500", "144458.770000", "144500.777500", "144502.785000", "144504.795000", "144506.802500", "144508.810000", "144510.817500", "144512.825000", "144514.835000", "144516.842500", "144518.850000", "144520.857500", "144522.867500", "144524.875000", "144526.882500", "144528.890000", "144530.897500", "144532.907500", "144534.915000", "144536.922500", "144538.930000", "144540.937500", "144542.947500", "144544.955000", "144546.962500", "144548.970000", "144550.980000", "144552.987500", "144554.995000", "144557.002500", "144559.010000", "144601.020000", "144603.027500", "144605.035000", "144607.042500", "144609.050000", "144611.060000", "144613.067500", "144615.075000", "144617.082500", "144619.090000", "144621.100000", "144623.107500", "144625.115000", "144627.122500", "144629.132500", "144631.140000", "144633.147500", "144635.155000", "144637.162500", "144639.172500", "144641.180000", "144643.187500", "144645.195000", "144647.202500", "144649.212500", "144651.220000", "144653.227500", "144655.235000", "144657.245000", "144659.252500", "144701.260000", "144703.267500", "144705.275000", "144707.285000", "144709.292500", "144711.300000", "144713.307500", "144715.315000", "144717.325000", "144719.332500", "144721.340000", "144723.347500", "144725.357500", "144727.365000", "144729.372500", "144731.380000", "144733.387500", "144735.397500", "144737.405000", "144739.412500", "144741.420000", "144743.427500", "144745.437500", "144747.445000", "144749.452500", "144751.460000", "144753.470000", "144755.477500", "144757.485000", "144759.492500", "144801.500000", "144803.510000", "144805.517500", "144807.525000", "144809.532500", "144811.540000", "144813.550000", "144815.557500", "144817.565000", "144819.572500", "144821.580000", "144823.590000", "144825.597500", "144827.605000", "144829.612500", "144831.622500", "144833.630000", "144835.637500", "144837.645000", "144839.652500", "144841.662500", "144843.670000", "144845.677500", "144847.685000", "144849.692500", "144851.702500", "144853.710000", "144855.717500", "144857.725000", "144859.735000", "144901.742500", "144903.750000", "144905.757500", "144907.765000", "144909.775000", "144911.782500", "144913.790000", "144915.797500", "144917.805000", "144919.815000", "144921.822500", "144923.830000", "144925.837500", "144927.847500", "144929.855000", "144931.862500", "144933.870000", "144935.877500", "144937.887500", "144939.895000", "144941.902500", "144943.910000", "144945.917500", "144947.927500", "144949.935000", "144951.942500", "144953.950000", "144955.957500", "144957.967500", "144959.975000", "145001.982500", "145003.990000", "145006.000000", "145008.007500", "145010.015000", "145012.022500", "145014.030000", "145016.040000", "145018.047500", "145020.055000", "145022.062500", "145024.070000", "145026.080000", "145028.087500", "145030.095000", "145032.102500", "145034.112500", "145036.120000", "145038.127500"],
      "ContentTime": ["144341.796000", "144343.781000", "144345.781000", "144347.781000", "144349.781000", "144351.781000", "144353.781000", "144355.781000", "144357.781000", "144359.781000", "144401.781000", "144403.781000", "144405.781000", "144407.781000", "144409.781000", "144411.781000", "144413.781000", "144415.781000", "144417.781000", "144419.781000", "144421.781000", "144423.781000", "144425.781000", "144427.781000", "144429.781000", "144431.781000", "144433.781000", "144435.781000", "144437.781000", "144439.781000", "144441.781000", "144443.781000", "144445.781000", "144447.781000", "144449.781000", "144451.781000", "144453.781000", "144455.781000", "144457.781000", "144459.781000", "144501.781000", "144503.781000", "144505.781000", "144507.781000", "144509.781000", "144511.781000", "144513.781000", "144515.781000", "144517.781000", "144519.781000", "144521.781000", "144523.781000", "144525.781000", "144527.781000", "144529.781000", "144531.781000", "144533.781000", "144535.781000", "144537.781000", "144539.781000", "144541.781000", "144543.781000", "144545.781000", "144547.781000", "144549.781000", "144551.781000", "144553.781000", "144555.781000", "144557.781000", "144559.781000", "144601.781000", "144603.781000", "144605.781000", "144607.781000", "144609.781000", "144611.781000", "144613.781000", "144615.781000", "144617.781000", "144619.781000", "144621.781000", "144623.781000", "144625.781000", "144627.781000", "144629.781000", "144631.781000", "144633.781000", "144635.781000", "144637.781000", "144639.781000", "144641.781000", "144643.781000", "144645.781000", "144647.781000", "144649.781000", "144651.781000", "144653.781000", "144655.781000", "144657.781000", "144659.781000", "144701.781000", "144703.781000", "144705.781000", "144707.781000", "144709.781000", "144711.781000", "144713.781000", "144715.781000", "144717.781000", "144719.781000", "144721.781000", "144723.781000", "144725.781000", "144727.781000", "144729.781000", "144731.781000", "144733.781000", "144735.781000", "144737.781000", "144739.781000", "144741.781000", "144743.781000", "144745.781000", "144747.781000", "144749.781000", "144751.781000", "144753.781000", "144755.781000", "144757.781000", "144759.781000", "144801.781000", "144803.781000", "144805.781000", "144807.781000", "144809.781000", "144811.781000", "144813.781000", "144815.781000", "144817.781000", "144819.781000", "144821.781000", "144823.781000", "144825.781000", "144827.781000", "144829.781000", "144831.781000", "144833.781000", "144835.781000", "144837.781000", "144839.781000", "144841.781000", "144843.781000", "144845.781000", "144847.781000", "144849.781000", "144851.781000", "144853.781000", "144855.781000", "144857.781000", "144859.781000", "144901.781000", "144903.781000", "144905.781000", "144907.781000", "144909.781000", "144911.781000", "144913.781000", "144915.781000", "144917.781000", "144919.781000", "144921.781000", "144923.781000", "144925.781000", "144927.781000", "144929.781000", "144931.781000", "144933.781000", "144935.781000", "144937.781000", "144939.781000", "144941.781000", "144943.781000", "144945.781000", "144947.781000", "144949.781000", "144951.781000", "144953.781000", "144955.781000", "144957.781000", "144959.781000", "145001.781000", "145003.781000", "145005.781000", "145007.781000", "145009.781000", "145011.781000", "145013.781000", "145015.781000", "145017.781000", "145019.781000", "145021.781000", "145023.781000", "145025.781000", "145027.781000", "145029.781000", "145031.781000", "145033.781000", "145035.781000", "145037.781000", "145039.375000"],
      "InstanceCreationTime": ["144341.796000", "144343.781000", "144345.781000", "144347.781000", "144349.781000", "144351.781000", "144353.781000", "144355.781000", "144357.781000", "144359.781000", "144401.781000", "144403.781000", "144405.781000", "144407.781000", "144409.781000", "144411.781000", "144413.781000", "144415.781000", "144417.781000", "144419.781000", "144421.781000", "144423.781000", "144425.781000", "144427.781000", "144429.781000", "144431.781000", "144433.781000", "144435.781000", "144437.781000", "144439.781000", "144441.781000", "144443.781000", "144445.781000", "144447.781000", "144449.781000", "144451.781000", "144453.781000", "144455.781000", "144457.781000", "144459.781000", "144501.781000", "144503.781000", "144505.781000", "144507.781000", "144509.781000", "144511.781000", "144513.781000", "144515.781000", "144517.781000", "144519.781000", "144521.781000", "144523.781000", "144525.781000", "144527.781000", "144529.781000", "144531.781000", "144533.781000", "144535.781000", "144537.781000", "144539.781000", "144541.781000", "144543.781000", "144545.781000", "144547.781000", "144549.781000", "144551.781000", "144553.781000", "144555.781000", "144557.781000", "144559.781000", "144601.781000", "144603.781000", "144605.781000", "144607.781000", "144609.781000", "144611.781000", "144613.781000", "144615.781000", "144617.781000", "144619.781000", "144621.781000", "144623.781000", "144625.781000", "144627.781000", "144629.781000", "144631.781000", "144633.781000", "144635.781000", "144637.781000", "144639.781000", "144641.781000", "144643.781000", "144645.781000", "144647.781000", "144649.781000", "144651.781000", "144653.781000", "144655.781000", "144657.781000", "144659.781000", "144701.781000", "144703.781000", "144705.781000", "144707.781000", "144709.781000", "144711.781000", "144713.781000", "144715.781000", "144717.781000", "144719.781000", "144721.781000", "144723.781000", "144725.781000", "144727.781000", "144729.781000", "144731.781000", "144733.781000", "144735.781000", "144737.781000", "144739.781000", "144741.781000", "144743.781000", "144745.781000", "144747.781000", "144749.781000", "144751.781000", "144753.781000", "144755.781000", "144757.781000", "144759.781000", "144801.781000", "144803.781000", "144805.781000", "144807.781000", "144809.781000", "144811.781000", "144813.781000", "144815.781000", "144817.781000", "144819.781000", "144821.781000", "144823.781000", "144825.781000", "144827.781000", "144829.781000", "144831.781000", "144833.781000", "144835.781000", "144837.781000", "144839.781000", "144841.781000", "144843.781000", "144845.781000", "144847.781000", "144849.781000", "144851.781000", "144853.781000", "144855.781000", "144857.781000", "144859.781000", "144901.781000", "144903.781000", "144905.781000", "144907.781000", "144909.781000", "144911.781000", "144913.781000", "144915.781000", "144917.781000", "144919.781000", "144921.781000", "144923.781000", "144925.781000", "144927.781000", "144929.781000", "144931.781000", "144933.781000", "144935.781000", "144937.781000", "144939.781000", "144941.781000", "144943.781000", "144945.781000", "144947.781000", "144949.781000", "144951.781000", "144953.781000", "144955.781000", "144957.781000", "144959.781000", "145001.781000", "145003.781000", "145005.781000", "145007.781000", "145009.781000", "145011.781000", "145013.781000", "145015.781000", "145017.781000", "145019.781000", "145021.781000", "145023.781000", "145025.781000", "145027.781000", "145029.781000", "145031.781000", "145033.781000", "145035.781000", "145037.781000", "145039.375000"],
      "InstanceNumber": [1, 2, 3, 4, 5, 6, 7, 8, 9, 10, 11, 12, 13, 14, 15, 16, 17, 18, 19, 20, 21, 22, 23, 24, 25, 26, 27, 28, 29, 30, 31, 32, 33, 34, 35, 36, 37, 38, 39, 40, 41, 42, 43, 44, 45, 46, 47, 48, 49, 50, 51, 52, 53, 54, 55, 56, 57, 58, 59, 60, 61, 62, 63, 64, 65, 66, 67, 68, 69, 70, 71, 72, 73, 74, 75, 76, 77, 78, 79, 80, 81, 82, 83, 84, 85, 86, 87, 88, 89, 90, 91, 92, 93, 94, 95, 96, 97, 98, 99, 100, 101, 102, 103, 104, 105, 106, 107, 108, 109, 110, 111, 112, 113, 114, 115, 116, 117, 118, 119, 120, 121, 122, 123, 124, 125, 126, 127, 128, 129, 130, 131, 132, 133, 134, 135, 136, 137, 138, 139, 140, 141, 142, 143, 144, 145, 146, 147, 148, 149, 150, 151, 152, 153, 154, 155, 156, 157, 158, 159, 160, 161, 162, 163, 164, 165, 166, 167, 168, 169, 170, 171, 172, 173, 174, 175, 176, 177, 178, 179, 180, 181, 182, 183, 184, 185, 186, 187, 188, 189, 190, 191, 192, 193, 194, 195, 196, 197, 198, 199, 200, 201, 202, 203, 204, 205, 206, 207, 208, 209, 210],
      "LargestImagePixelValue": [2090, 1997, 1972, 1953, 1947, 1941, 1932, 1935, 1960, 1942, 1945, 1926, 1938, 1944, 1937, 1927, 1942, 1935, 1924, 1957, 1943, 1920, 1908, 1914, 1908, 1907, 1903, 1914, 1903, 1904, 1900, 1905, 1910, 1925, 1907, 1910, 1911, 1919, 1910, 1899, 1912, 1909, 1895, 1900, 1907, 1904, 1916, 1904, 1897, 1892, 1891, 1908, 1903, 1900, 1897, 1890, 1891, 1897, 1888, 1889, 1904, 2358, 1910, 1922, 1893, 1891, 1937, 1917, 1897, 1916, 1901, 2026, 1925, 1971, 1926, 1911, 1928, 1923, 2139, 1937, 1942, 1939, 1917, 1920, 1927, 1919, 1920, 1927, 1919, 1923, 1936, 1911, 1984, 1949, 1956, 2256, 2200, 2249, 1928, 1924, 1932, 1950, 1921, 1979, 1940, 1949, 1950, 1936, 1925, 1942, 1933, 1943, 1940, 1946, 1930, 1934, 1951, 1932, 1942, 1944, 1958, 1940, 1959, 1924, 1946, 1963, 1969, 1953, 2224, 1934, 1951, 1959, 1960, 1947, 1955, 1957, 1909, 2077, 2245, 2067, 1952, 1888, 1903, 1889, 1890, 1900, 1913, 1999, 2022, 1915, 1899, 1896, 2007, 2288, 2233, 1886, 1897, 1904, 1902, 1913, 1910, 1903, 1933, 1924, 1917, 1931, 1896, 1901, 1901, 1923, 1917, 2124, 1899, 1926, 1880, 1925, 1909, 1904, 1908, 1901, 1910, 1913, 1919, 1898, 1913, 2008, 1883, 1889, 1909, 1924, 1904, 1908, 1907, 2122, 1910, 1880, 1897, 1915, 1884, 1886, 1899, 1910, 1901, 1915, 1894, 1892, 2039, 2052, 2127, 1928],
      "WindowCenter": [755.0, 754.0, 753.0, 754.0, 754.0, 754.0, 753.0, 753.0, 754.0, 753.0, 752.0, 751.0, 752.0, 753.0, 753.0, 753.0, 753.0, 753.0, 754.0, 754.0, 753.0, 753.0, 752.0, 752.0, 752.0, 751.0, 751.0, 751.0, 751.0, 753.0, 754.0, 755.0, 753.0, 752.0, 750.0, 750.0, 751.0, 752.0, 752.0, 753.0, 753.0, 753.0, 752.0, 752.0, 753.0, 752.0, 753.0, 756.0, 755.0, 754.0, 753.0, 753.0, 755.0, 755.0, 753.0, 753.0, 752.0, 753.0, 753.0, 753.0, 753.0, 757.0, 756.0, 755.0, 754.0, 752.0, 752.0, 753.0, 755.0, 754.0, 753.0, 752.0, 751.0, 753.0, 753.0, 752.0, 750.0, 749.0, 748.0, 746.0, 748.0, 750.0, 751.0, 752.0, 753.0, 754.0, 754.0, 754.0, 755.0, 754.0, 754.0, 755.0, 758.0, 758.0, 759.0, 757.0, 754.0, 753.0, 751.0, 751.0, 752.0, 753.0, 753.0, 756.0, 754.0, 752.0, 751.0, 749.0, 749.0, 750.0, 751.0, 751.0, 752.0, 751.0, 751.0, 752.0, 753.0, 753.0, 754.0, 755.0, 755.0, 755.0, 757.0, 757.0, 757.0, 757.0, 758.0, 757.0, 756.0, 753.0, 753.0, 754.0, 755.0, 755.0, 757.0, 757.0, 754.0, 752.0, 751.0, 750.0, 749.0, 748.0, 747.0, 748.0, 750.0, 753.0, 752.0, 754.0, 756.0, 754.0, 754.0, 752.0, 750.0, 749.0, 747.0, 745.0, 746.0, 746.0, 748.0, 750.0, 753.0, 755.0, 755.0, 755.0, 755.0, 756.0, 757.0, 756.0, 755.0, 754.0, 754.0, 754.0, 752.0, 751.0, 750.0, 751.0, 753.0, 753.0, 753.0, 753.0, 754.0, 756.0, 757.0, 756.0, 755.0, 754.0, 752.0, 752.0, 752.0, 753.0, 753.0, 753.0, 752.0, 755.0, 755.0, 754.0, 755.0, 755.0, 753.0, 752.0, 752.0, 751.0, 752.0, 753.0, 753.0, 752.0, 754.0, 758.0, 764.0, 759.0],
      "WindowWidth": [1605.0, 1601.0, 1598.0, 1600.0, 1602.0, 1600.0, 1598.0, 1598.0, 1601.0, 1599.0, 1595.0, 1594.0, 1597.0, 1599.0, 1600.0, 1600.0, 1598.0, 1600.0, 1602.0, 1602.0, 1600.0, 1600.0, 1597.0, 1596.0, 1596.0, 1595.0, 1593.0, 1595.0, 1595.0, 1600.0, 1603.0, 1604.0, 1600.0, 1595.0, 1592.0, 1592.0, 1594.0, 1596.0, 1598.0, 1600.0, 1599.0, 1598.0, 1598.0, 1598.0, 1598.0, 1597.0, 1600.0, 1606.0, 1604.0, 1602.0, 1600.0, 1600.0, 1604.0, 1604.0, 1601.0, 1598.0, 1596.0, 1598.0, 1599.0, 1599.0, 1599.0, 1609.0, 1606.0, 1603.0, 1601.0, 1597.0, 1597.0, 1600.0, 1605.0, 1602.0, 1598.0, 1596.0, 1595.0, 1600.0, 1598.0, 1597.0, 1592.0, 1589.0, 1587.0, 1582.0, 1586.0, 1593.0, 1595.0, 1597.0, 1600.0, 1601.0, 1601.0, 1602.0, 1603.0, 1602.0, 1601.0, 1604.0, 1611.0, 1612.0, 1614.0, 1608.0, 1602.0, 1600.0, 1594.0, 1594.0, 1595.0, 1598.0, 1598.0, 1605.0, 1602.0, 1597.0, 1593.0, 1589.0, 1589.0, 1591.0, 1592.0, 1595.0, 1596.0, 1593.0, 1594.0, 1597.0, 1600.0, 1600.0, 1602.0, 1603.0, 1603.0, 1604.0, 1609.0, 1610.0, 1608.0, 1608.0, 1612.0, 1609.0, 1607.0, 1600.0, 1600.0, 1601.0, 1602.0, 1605.0, 1610.0, 1607.0, 1602.0, 1596.0, 1594.0, 1591.0, 1589.0, 1588.0, 1585.0, 1587.0, 1592.0, 1598.0, 1597.0, 1602.0, 1606.0, 1601.0, 1601.0, 1597.0, 1592.0, 1588.0, 1584.0, 1580.0, 1581.0, 1583.0, 1586.0, 1591.0, 1599.0, 1603.0, 1604.0, 1604.0, 1604.0, 1608.0, 1609.0, 1607.0, 1603.0, 1602.0, 1602.0, 1603.0, 1596.0, 1593.0, 1591.0, 1594.0, 1599.0, 1600.0, 1599.0, 1600.0, 1603.0, 1608.0, 1610.0, 1606.0, 1603.0, 1601.0, 1597.0, 1596.0, 1596.0, 1600.0, 1600.0, 1599.0, 1597.0, 1606.0, 1603.0, 1601.0, 1603.0, 1603.0, 1598.0, 1596.0, 1596.0, 1595.0, 1597.0, 1599.0, 1598.0, 1597.0, 1602.0, 1610.0, 1626.0, 1613.0]
    },
    "slices": {}
  }
}