{
  "AcquisitionMatrixPE": 64,
  "AcquisitionNumber": 1,
  "AcquisitionTime": "14:20:32.082500",
  "BandwidthPerPixelPhaseEncode": 30.637,
  "BaseResolution": 64,
  "BidsGuess": [
    "func",
    "_acq-epfid2_dir-AP_run-5_bold"
],
  "CoilCombinationMethod": "Sum of Squares",
  "CoilString": "C:HEA;HEP",
  "ConversionSoftware": "dcm2niix",
  "ConversionSoftwareVersion": "v1.0.20240202",
  "DerivedVendorReportedEchoSpacing": 0.000510004,
  "DeviceSerialNumber": "35119",
  "DwellTime": 3.5e-06,
  "EchoTime": 0.03,
  "EffectiveEchoSpacing": 0.000510004,
  "FlipAngle": 78,
  "HeudiconvVersion": "1.1.6",
  "ImageComments": "V",
  "ImageOrientationPatientDICOM": [0.999178, 0.025661, 0.03138, 0, 0.774114, -0.633046],
  "ImageOrientationText": "Tra>Cor(-39.3)>Sag(2.3)",
  "ImageType": [
    "ORIGINAL",
    "PRIMARY",
    "M",
    "ND",
    "MOSAIC"
],
  "ImagingFrequency": 123.251786,
  "InPlanePhaseEncodingDirectionDICOM": "COL",
  "InstitutionAddress": "Chaucer Road  15,Cambridge,UK,GB,CB2 2EF",
  "InstitutionName": "MRC-CBU",
  "MRAcquisitionType": "2D",
  "MagneticFieldStrength": 3,
  "Manufacturer": "Siemens",
  "ManufacturersModelName": "TrioTim",
  "MatrixCoilMode": "SENSE",
  "Modality": "MR",
  "NonlinearGradientCorrection": false,
  "PartialFourier": 1,
  "PatientPosition": "HFS",
  "PercentPhaseFOV": 100,
  "PercentSampling": 100,
  "PhaseEncodingDirection": "j-",
  "PhaseEncodingSteps": 64,
  "PhaseResolution": 1,
  "PixelBandwidth": 2230,
  "ProcedureStepDescription": "CBU^Neuroimaging",
  "ProtocolName": "CBU_DWEPI_BOLD210",
  "PulseSequenceDetails": "%SiemensSeq%\\ep2d_bold",
  "ReceiveCoilName": "HeadMatrix",
  "ReconMatrixPE": 64,
  "RepetitionTime": 2,
  "SAR": 0.177458,
  "ScanOptions": "FS",
  "ScanningSequence": "EP",
  "SequenceName": "*epfid2d1_64",
  "SequenceVariant": "SK",
  "SeriesDescription": "CBU_DWEPI_BOLD210",
  "SeriesNumber": 5,
  "ShimSetting": [-7754, -8791, -2016, 580, 113, 67, -86, 23],
  "SliceThickness": 3,
  "SliceTiming": [0, 1.035, 0.06, 1.095, 0.1225, 1.155, 0.1825, 1.2175, 0.2425, 1.2775, 0.305, 1.3375, 0.365, 1.4, 0.425, 1.46, 0.4875, 1.52, 0.5475, 1.5825, 0.6075, 1.6425, 0.67, 1.7025, 0.73, 1.765, 0.79, 1.825, 0.8525, 1.885, 0.9125, 1.9475, 0.9725],
  "SoftwareVersions": "syngo MR B15",
  "SpacingBetweenSlices": 3.9,
  "StationName": "MRC35119",
  "TaskName": "faceprocessing",
  "TotalReadoutTime": 0.0321303,
  "TxRefAmp": 353.369,
  "dcmmeta_affine": [
    [-2.9975340366363525, 0.0, 0.15809153020381927, 98.53073120117188],
    [-0.0769829973578453, 2.3223419189453125, -2.4668500423431396, -26.370988845825195],
    [0.09414000064134598, 1.8991379737854004, 3.0165629386901855, -84.90180206298828],
    [0.0, 0.0, 0.0, 1.0]
],
  "dcmmeta_reorient_transform": [
    [0.0, -1.0, 0.0, 63.0],
    [1.0, 0.0, 0.0, 0.0],
    [0.0, 0.0, 1.0, 0.0],
    [0.0, 0.0, 0.0, 1.0]
],
  "dcmmeta_shape": [64, 64, 33, 210],
  "dcmmeta_slice_dim": 2,
  "dcmmeta_version": 0.6,
  "global": {
    "const": {
      "AcquisitionMatrix": [64, 0, 0, 64],
      "AngioFlag": "N",
      "BitsAllocated": 16,
      "BitsStored": 12,
      "Columns": 384,
      "EchoNumbers": 1,
      "EchoTime": 30.0,
      "EchoTrainLength": 1,
      "FlipAngle": 78.0,
      "HighBit": 11,
      "ImageOrientationPatient": [0.999178, 0.025661, 0.03138, -0.0, 0.774114, -0.633046],
      "ImagePositionPatient": [-578.136169, -503.828558, 323.543572],
      "ImageType": [
        "ORIGINAL",
        "PRIMARY",
        "M",
        "ND",
        "MOSAIC"
],
      "ImagedNucleus": "1H",
      "ImagingFrequency": 123.251786,
      "InPlanePhaseEncodingDirection": "COL",
      "MRAcquisitionType": "2D",
      "MagneticFieldStrength": 3.0,
      "Manufacturer": "SIEMENS",
      "ManufacturerModelName": "TrioTim",
      "Modality": "MR",
      "NumberOfAverages": 1.0,
      "NumberOfPhaseEncodingSteps": 64,
      "PercentPhaseFieldOfView": 100.0,
      "PercentSampling": 100.0,
      "PerformedProcedureStepStartTime": "135553.812000",
      "PhotometricInterpretation": "MONOCHROME2",
      "PixelAspectRatio": [1, 1],
      "PixelBandwidth": 2230.0,
      "PixelRepresentation": 0,
      "PixelSpacing": [3.0, 3.0],
      "ProtocolName": "CBU_DWEPI_BOLD210",
      "RepetitionTime": 2000.0,
      "Rows": 384,
      "SAR": 0.177458,
      "SamplesPerPixel": 1,
      "ScanOptions": "FS",
      "ScanningSequence": "EP",
      "SequenceName": "*epfid2d1_64",
      "SequenceVariant": "SK",
      "SeriesDescription": "CBU_DWEPI_BOLD210",
      "SeriesNumber": 5,
      "SeriesTime": "142036.125000",
      "SliceLocation": -44.994972,
      "SliceThickness": 3.0,
      "SmallestImagePixelValue": 0,
      "SoftwareVersions": "syngo MR B15",
      "SpacingBetweenSlices": 3.9,
      "SpecificCharacterSet": "ISO_IR 100",
      "StudyID": "1",
      "StudyTime": "135553.640000",
      "TransmitCoilName": "Body",
      "VariableFlipAngleFlag": "N",
      "WindowCenterWidthExplanation": "Algo1",
      "dBdt": 0.0},
    "slices": {}
  },
  "time": {
    "samples": {
      "AcquisitionNumber": [1, 2, 3, 4, 5, 6, 7, 8, 9, 10, 11, 12, 13, 14, 15, 16, 17, 18, 19, 20, 21, 22, 23, 24, 25, 26, 27, 28, 29, 30, 31, 32, 33, 34, 35, 36, 37, 38, 39, 40, 41, 42, 43, 44, 45, 46, 47, 48, 49, 50, 51, 52, 53, 54, 55, 56, 57, 58, 59, 60, 61, 62, 63, 64, 65, 66, 67, 68, 69, 70, 71, 72, 73, 74, 75, 76, 77, 78, 79, 80, 81, 82, 83, 84, 85, 86, 87, 88, 89, 90, 91, 92, 93, 94, 95, 96, 97, 98, 99, 100, 101, 102, 103, 104, 105, 106, 107, 108, 109, 110, 111, 112, 113, 114, 115, 116, 117, 118, 119, 120, 121, 122, 123, 124, 125, 126, 127, 128, 129, 130, 131, 132, 133, 134, 135, 136, 137, 138, 139, 140, 141, 142, 143, 144, 145, 146, 147, 148, 149, 150, 151, 152, 153, 154, 155, 156, 157, 158, 159, 160, 161, 162, 163, 164, 165, 166, 167, 168, 169, 170, 171, 172, 173, 174, 175, 176, 177, 178, 179, 180, 181, 182, 183, 184, 185, 186, 187, 188, 189, 190, 191, 192, 193, 194, 195, 196, 197, 198, 199, 200, 201, 202, 203, 204, 205, 206, 207, 208, 209, 210],
      "AcquisitionTime": ["142032.082500", "142034.090000", "142036.100000", "142038.107500", "142040.115000", "142042.122500", "142044.130000", "142046.140000", "142048.147500", "142050.155000", "142052.162500", "142054.170000", "142056.180000", "142058.187500", "142100.195000", "142102.202500", "142104.212500", "142106.220000", "142108.227500", "142110.235000", "142112.242500", "142114.252500", "142116.260000", "142118.267500", "142120.275000", "142122.282500", "142124.292500", "142126.300000", "142128.307500", "142130.315000", "142132.322500", "142134.332500", "142136.340000", "142138.347500", "142140.355000", "142142.365000", "142144.372500", "142146.380000", "142148.387500", "142150.395000", "142152.405000", "142154.412500", "142156.420000", "142158.427500", "142200.435000", "142202.445000", "142204.452500", "142206.460000", "142208.467500", "142210.477500", "142212.485000", "142214.492500", "142216.500000", "142218.507500", "142220.517500", "142222.525000", "142224.532500", "142226.540000", "142228.547500", "142230.557500", "142232.565000", "142234.572500", "142236.580000", "142238.590000", "142240.597500", "142242.605000", "142244.612500", "142246.620000", "142248.630000", "142250.637500", "142252.645000", "142254.652500", "142256.660000", "142258.670000", "142300.677500", "142302.685000", "142304.692500", "142306.700000", "142308.710000", "142310.717500", "142312.725000", "142314.732500", "142316.742500", "142318.750000", "142320.757500", "142322.765000", "142324.772500", "142326.782500", "142328.790000", "142330.797500", "142332.805000", "142334.812500", "142336.822500", "142338.830000", "142340.837500", "142342.845000", "142344.855000", "142346.862500", "142348.870000", "142350.877500", "142352.885000", "142354.895000", "142356.902500", "142358.910000", "142400.917500", "142402.925000", "142404.935000", "142406.942500", "142408.950000", "142410.957500", "142412.967500", "142414.975000", "142416.982500", "142418.990000", "142420.997500", "142423.007500", "142425.015000", "142427.022500", "142429.030000", "142431.037500", "142433.047500", "142435.055000", "142437.062500", "142439.070000", "142441.077500", "142443.087500", "142445.095000", "142447.102500", "142449.110000", "142451.120000", "142453.127500", "142455.135000", "142457.142500", "142459.150000", "142501.160000", "142503.167500", "142505.175000", "142507.182500", "142509.190000", "142511.200000", "142513.207500", "142515.215000", "142517.222500", "142519.232500", "142521.240000", "142523.247500", "142525.255000", "142527.262500", "142529.272500", "142531.280000", "142533.287500", "142535.295000", "142537.302500", "142539.312500", "142541.320000", "142543.327500", "142545.335000", "142547.345000", "142549.352500", "142551.360000", "142553.367500", "142555.375000", "142557.385000", "142559.392500", "142601.400000", "142603.407500", "142605.415000", "142607.425000", "142609.432500", "142611.440000", "142613.447500", "142615.455000", "142617.465000", "142619.472500", "142621.480000", "142623.487500", "142625.497500", "142627.505000", "142629.512500", "142631.520000", "142633.527500", "142635.537500", "142637.545000", "142639.552500", "142641.560000", "142643.567500", "142645.577500", "142647.585000", "142649.592500", "142651.600000", "142653.610000", "142655.617500", "142657.625000", "142659.632500", "142701.640000", "142703.650000", "142705.657500", "142707.665000", "142709.672500", "142711.680000", "142713.690000", "142715.697500", "142717.705000", "142719.712500", "142721.722500", "142723.730000", "142725.737500", "142727.745000", "142729.752500", "142731.762500"],
      "ContentTime": ["142036.125000", "142038.125000", "142040.125000", "142042.125000", "142044.125000", "142046.125000", "142048.125000", "142050.125000", "142052.125000", "142054.125000", "142056.125000", "142058.125000", "142100.125000", "142102.125000", "142104.125000", "142106.125000", "142108.125000", "142110.125000", "142112.125000", "142114.125000", "142116.125000", "142118.125000", "142120.125000", "142122.125000", "142124.125000", "142126.125000", "142128.125000", "142130.125000", "142132.125000", "142134.125000", "142136.125000", "142138.125000", "142140.125000", "142142.125000", "142144.125000", "142146.125000", "142148.125000", "142150.125000", "142152.125000", "142154.125000", "142156.125000", "142158.125000", "142200.125000", "142202.125000", "142204.125000", "142206.125000", "142208.125000", "142210.125000", "142212.125000", "142214.125000", "142216.125000", "142218.125000", "142220.125000", "142222.125000", "142224.125000", "142226.125000", "142228.125000", "142230.125000", "142232.125000", "142234.125000", "142236.125000", "142238.125000", "142240.125000", "142242.125000", "142244.125000", "142246.125000", "142248.125000", "142250.125000", "142252.125000", "142254.125000", "142256.125000", "142258.125000", "142300.125000", "142302.125000", "142304.125000", "142306.125000", "142308.125000", "142310.125000", "142312.125000", "142314.125000", "142316.125000", "142318.125000", "142320.125000", "142322.125000", "142324.125000", "142326.125000", "142328.125000", "142330.125000", "142332.125000", "142334.125000", "142336.125000", "142338.125000", "142340.125000", "142342.125000", "142344.125000", "142346.125000", "142348.125000", "142350.125000", "142352.125000", "142354.125000", "142356.125000", "142358.125000", "142400.125000", "142402.125000", "142404.125000", "142406.125000", "142408.125000", "142410.125000", "142412.125000", "142414.125000", "142416.125000", "142418.125000", "142420.125000", "142422.125000", "142424.125000", "142426.125000", "142428.125000", "142430.125000", "142432.125000", "142434.125000", "142436.125000", "142438.125000", "142440.125000", "142442.125000", "142444.125000", "142446.125000", "142448.125000", "142450.125000", "142452.125000", "142454.125000", "142456.125000", "142458.125000", "142500.125000", "142502.125000", "142504.125000", "142506.125000", "142508.125000", "142510.125000", "142512.125000", "142514.125000", "142516.125000", "142518.125000", "142520.125000", "142522.125000", "142524.125000", "142526.125000", "142528.125000", "142530.125000", "142532.125000", "142534.125000", "142536.125000", "142538.125000", "142540.125000", "142542.125000", "142544.125000", "142546.125000", "142548.125000", "142550.125000", "142552.125000", "142554.125000", "142556.125000", "142558.125000", "142600.125000", "142602.125000", "142604.125000", "142606.125000", "142608.125000", "142610.125000", "142612.125000", "142614.125000", "142616.125000", "142618.125000", "142620.125000", "142622.125000", "142624.125000", "142626.125000", "142628.125000", "142630.125000", "142632.125000", "142634.125000", "142636.125000", "142638.125000", "142640.125000", "142642.125000", "142644.125000", "142646.125000", "142648.125000", "142650.125000", "142652.125000", "142654.125000", "142656.125000", "142658.125000", "142700.125000", "142702.125000", "142704.125000", "142706.125000", "142708.125000", "142710.125000", "142712.125000", "142714.125000", "142716.125000", "142718.125000", "142720.125000", "142722.125000", "142724.125000", "142726.125000", "142728.125000", "142730.125000", "142732.125000", "142733.890000"],
      "InstanceCreationTime": ["142036.125000", "142038.125000", "142040.125000", "142042.125000", "142044.125000", "142046.125000", "142048.125000", "142050.125000", "142052.125000", "142054.125000", "142056.125000", "142058.125000", "142100.125000", "142102.125000", "142104.125000", "142106.125000", "142108.125000", "142110.125000", "142112.125000", "142114.125000", "142116.125000", "142118.125000", "142120.125000", "142122.125000", "142124.125000", "142126.125000", "142128.125000", "142130.125000", "142132.125000", "142134.125000", "142136.125000", "142138.125000", "142140.125000", "142142.125000", "142144.125000", "142146.125000", "142148.125000", "142150.125000", "142152.125000", "142154.125000", "142156.125000", "142158.125000", "142200.125000", "142202.125000", "142204.125000", "142206.125000", "142208.125000", "142210.125000", "142212.125000", "142214.125000", "142216.125000", "142218.125000", "142220.125000", "142222.125000", "142224.125000", "142226.125000", "142228.125000", "142230.125000", "142232.125000", "142234.125000", "142236.125000", "142238.125000", "142240.125000", "142242.125000", "142244.125000", "142246.125000", "142248.125000", "142250.125000", "142252.125000", "142254.125000", "142256.125000", "142258.125000", "142300.125000", "142302.125000", "142304.125000", "142306.125000", "142308.125000", "142310.125000", "142312.125000", "142314.125000", "142316.125000", "142318.125000", "142320.125000", "142322.125000", "142324.125000", "142326.125000", "142328.125000", "142330.125000", "142332.125000", "142334.125000", "142336.125000", "142338.125000", "142340.125000", "142342.125000", "142344.125000", "142346.125000", "142348.125000", "142350.125000", "142352.125000", "142354.125000", "142356.125000", "142358.125000", "142400.125000", "142402.125000", "142404.125000", "142406.125000", "142408.125000", "142410.125000", "142412.125000", "142414.125000", "142416.125000", "142418.125000", "142420.125000", "142422.125000", "142424.125000", "142426.125000", "142428.125000", "142430.125000", "142432.125000", "142434.125000", "142436.125000", "142438.125000", "142440.125000", "142442.125000", "142444.125000", "142446.125000", "142448.125000", "142450.125000", "142452.125000", "142454.125000", "142456.125000", "142458.125000", "142500.125000", "142502.125000", "142504.125000", "142506.125000", "142508.125000", "142510.125000", "142512.125000", "142514.125000", "142516.125000", "142518.125000", "142520.125000", "142522.125000", "142524.125000", "142526.125000", "142528.125000", "142530.125000", "142532.125000", "142534.125000", "142536.125000", "142538.125000", "142540.125000", "142542.125000", "142544.125000", "142546.125000", "142548.125000", "142550.125000", "142552.125000", "142554.125000", "142556.125000", "142558.125000", "142600.125000", "142602.125000", "142604.125000", "142606.125000", "142608.125000", "142610.125000", "142612.125000", "142614.125000", "142616.125000", "142618.125000", "142620.125000", "142622.125000", "142624.125000", "142626.125000", "142628.125000", "142630.125000", "142632.125000", "142634.125000", "142636.125000", "142638.125000", "142640.125000", "142642.125000", "142644.125000", "142646.125000", "142648.125000", "142650.125000", "142652.125000", "142654.125000", "142656.125000", "142658.125000", "142700.125000", "142702.125000", "142704.125000", "142706.125000", "142708.125000", "142710.125000", "142712.125000", "142714.125000", "142716.125000", "142718.125000", "142720.125000", "142722.125000", "142724.125000", "142726.125000", "142728.125000", "142730.125000", "142732.125000", "142733.890000"],
      "InstanceNumber": [1, 2, 3, 4, 5, 6, 7, 8, 9, 10, 11, 12, 13, 14, 15, 16, 17, 18, 19, 20, 21, 22, 23, 24, 25, 26, 27, 28, 29, 30, 31, 32, 33, 34, 35, 36, 37, 38, 39, 40, 41, 42, 43, 44, 45, 46, 47, 48, 49, 50, 51, 52, 53, 54, 55, 56, 57, 58, 59, 60, 61, 62, 63, 64, 65, 66, 67, 68, 69, 70, 71, 72, 73, 74, 75, 76, 77, 78, 79, 80, 81, 82, 83, 84, 85, 86, 87, 88, 89, 90, 91, 92, 93, 94, 95, 96, 97, 98, 99, 100, 101, 102, 103, 104, 105, 106, 107, 108, 109, 110, 111, 112, 113, 114, 115, 116, 117, 118, 119, 120, 121, 122, 123, 124, 125, 126, 127, 128, 129, 130, 131, 132, 133, 134, 135, 136, 137, 138, 139, 140, 141, 142, 143, 144, 145, 146, 147, 148, 149, 150, 151, 152, 153, 154, 155, 156, 157, 158, 159, 160, 161, 162, 163, 164, 165, 166, 167, 168, 169, 170, 171, 172, 173, 174, 175, 176, 177, 178, 179, 180, 181, 182, 183, 184, 185, 186, 187, 188, 189, 190, 191, 192, 193, 194, 195, 196, 197, 198, 199, 200, 201, 202, 203, 204, 205, 206, 207, 208, 209, 210],
      "LargestImagePixelValue": [2139, 2084, 2039, 2005, 2032, 2019, 2015, 2005, 1996, 2009, 2022, 2025, 2008, 1979, 1998, 1984, 2295, 1978, 1979, 1975, 1993, 1994, 1999, 1996, 1998, 2014, 1984, 2008, 1992, 1983, 2005, 2004, 1994, 2008, 1986, 2011, 2009, 2003, 2005, 2015, 1985, 1968, 1982, 1982, 1996, 1985, 1984, 1992, 1966, 1983, 1968, 2013, 2030, 2041, 2004, 2001, 1980, 1976, 2002, 2002, 1971, 1997, 1974, 1977, 1988, 1992, 1991, 1980, 1975, 1999, 2012, 2041, 2021, 2031, 2053, 2045, 2050, 2037, 2015, 2053, 2032, 2038, 2025, 2047, 2019, 2031, 2046, 2009, 2040, 2051, 2046, 2035, 2026, 2038, 2031, 2017, 2014, 2028, 2038, 2011, 2038, 2051, 2361, 2236, 2071, 2060, 2068, 2280, 2056, 2179, 2043, 2082, 2088, 2062, 2043, 2045, 2066, 2063, 2051, 2029, 2041, 2028, 2038, 2032, 2028, 2061, 2063, 2074, 2083, 2061, 2045, 2046, 2051, 2054, 2061, 2050, 2050, 2045, 2058, 2078, 2072, 2071, 2049, 2050, 2045, 2039, 2033, 2064, 2073, 2070, 2072, 2058, 2037, 2072, 2063, 2058, 2048, 2061, 2058, 2078, 2081, 2068, 2073, 2079, 2071, 2077, 2080, 2085, 2080, 2084, 2059, 2069, 2060, 2090, 2092, 2088, 2092, 2091, 2088, 2090, 2068, 2076, 2068, 2071, 2287, 2069, 2059, 2070, 2078, 2084, 2086, 2085, 2079, 2111, 2119, 2091, 2079, 2075, 2075, 2102, 2112, 2102, 2106, 2108, 2103, 2080, 2063, 2099, 2068, 2075],
      "WindowCenter": [756.0, 754.0, 753.0, 751.0, 753.0, 753.0, 754.0, 754.0, 755.0, 755.0, 755.0, 754.0, 754.0, 754.0, 757.0, 756.0, 756.0, 753.0, 753.0, 754.0, 756.0, 756.0, 754.0, 753.0, 753.0, 753.0, 754.0, 755.0, 757.0, 756.0, 755.0, 754.0, 753.0, 752.0, 750.0, 750.0, 752.0, 754.0, 754.0, 753.0, 751.0, 751.0, 753.0, 754.0, 753.0, 752.0, 751.0, 751.0, 751.0, 753.0, 756.0, 757.0, 756.0, 754.0, 754.0, 754.0, 753.0, 754.0, 756.0, 757.0, 755.0, 754.0, 753.0, 753.0, 752.0, 752.0, 752.0, 752.0, 753.0, 755.0, 755.0, 755.0, 754.0, 754.0, 754.0, 754.0, 753.0, 753.0, 754.0, 754.0, 755.0, 755.0, 755.0, 755.0, 755.0, 755.0, 756.0, 757.0, 758.0, 757.0, 756.0, 755.0, 755.0, 757.0, 757.0, 758.0, 758.0, 759.0, 758.0, 759.0, 758.0, 758.0, 756.0, 755.0, 755.0, 755.0, 754.0, 752.0, 751.0, 752.0, 751.0, 751.0, 752.0, 753.0, 754.0, 753.0, 753.0, 753.0, 753.0, 755.0, 756.0, 756.0, 755.0, 756.0, 757.0, 756.0, 755.0, 753.0, 751.0, 751.0, 751.0, 752.0, 752.0, 752.0, 754.0, 756.0, 758.0, 759.0, 759.0, 758.0, 757.0, 756.0, 756.0, 755.0, 755.0, 757.0, 759.0, 759.0, 757.0, 755.0, 754.0, 755.0, 754.0, 754.0, 753.0, 753.0, 754.0, 754.0, 754.0, 755.0, 756.0, 756.0, 756.0, 756.0, 756.0, 756.0, 756.0, 756.0, 758.0, 757.0, 758.0, 759.0, 758.0, 757.0, 755.0, 754.0, 755.0, 756.0, 756.0, 756.0, 756.0, 758.0, 757.0, 756.0, 756.0, 755.0, 755.0, 755.0, 755.0, 755.0, 757.0, 757.0, 755.0, 755.0, 754.0, 754.0, 757.0, 760.0, 759.0, 757.0, 756.0, 755.0, 755.0, 756.0, 756.0, 758.0, 760.0, 759.0, 758.0, 757.0],
      "WindowWidth": [1608.0, 1602.0, 1598.0, 1594.0, 1598.0, 1600.0, 1602.0, 1602.0, 1604.0, 1603.0, 1603.0, 1602.0, 1601.0, 1602.0, 1608.0, 1607.0, 1606.0, 1599.0, 1598.0, 1601.0, 1607.0, 1608.0, 1602.0, 1600.0, 1598.0, 1600.0, 1601.0, 1604.0, 1609.0, 1607.0, 1604.0, 1601.0, 1598.0, 1596.0, 1593.0, 1593.0, 1598.0, 1603.0, 1602.0, 1598.0, 1594.0, 1595.0, 1599.0, 1602.0, 1598.0, 1595.0, 1594.0, 1595.0, 1595.0, 1599.0, 1607.0, 1610.0, 1605.0, 1601.0, 1601.0, 1601.0, 1599.0, 1601.0, 1606.0, 1609.0, 1605.0, 1601.0, 1600.0, 1598.0, 1597.0, 1596.0, 1596.0, 1597.0, 1598.0, 1603.0, 1604.0, 1604.0, 1601.0, 1601.0, 1602.0, 1602.0, 1600.0, 1600.0, 1601.0, 1603.0, 1605.0, 1605.0, 1604.0, 1604.0, 1605.0, 1606.0, 1608.0, 1610.0, 1612.0, 1609.0, 1606.0, 1605.0, 1605.0, 1609.0, 1610.0, 1612.0, 1613.0, 1614.0, 1614.0, 1614.0, 1613.0, 1610.0, 1608.0, 1603.0, 1603.0, 1605.0, 1600.0, 1597.0, 1593.0, 1596.0, 1595.0, 1595.0, 1597.0, 1600.0, 1600.0, 1600.0, 1599.0, 1600.0, 1600.0, 1605.0, 1607.0, 1606.0, 1605.0, 1606.0, 1610.0, 1608.0, 1604.0, 1599.0, 1595.0, 1594.0, 1596.0, 1597.0, 1597.0, 1598.0, 1602.0, 1608.0, 1611.0, 1614.0, 1614.0, 1611.0, 1610.0, 1608.0, 1606.0, 1605.0, 1605.0, 1610.0, 1615.0, 1613.0, 1608.0, 1605.0, 1603.0, 1603.0, 1602.0, 1602.0, 1600.0, 1600.0, 1601.0, 1602.0, 1602.0, 1603.0, 1606.0, 1606.0, 1606.0, 1606.0, 1607.0, 1607.0, 1607.0, 1607.0, 1611.0, 1610.0, 1613.0, 1614.0, 1612.0, 1608.0, 1605.0, 1602.0, 1603.0, 1607.0, 1608.0, 1607.0, 1608.0, 1611.0, 1610.0, 1608.0, 1607.0, 1604.0, 1604.0, 1604.0, 1603.0, 1605.0, 1608.0, 1608.0, 1605.0, 1603.0, 1603.0, 1603.0, 1610.0, 1617.0, 1614.0, 1609.0, 1606.0, 1604.0, 1605.0, 1606.0, 1608.0, 1612.0, 1616.0, 1614.0, 1611.0, 1609.0]
    },
    "slices": {}
  }
}