{
  "AcquisitionMatrixPE": 64,
  "AcquisitionNumber": 1,
  "AcquisitionTime": "14:58:29.022500",
  "BandwidthPerPixelPhaseEncode": 30.637,
  "BaseResolution": 64,
  "BidsGuess": [
    "func",
    "_acq-epfid2_dir-AP_run-10_bold"
],
  "CoilCombinationMethod": "Sum of Squares",
  "CoilString": "C:HEA;HEP",
  "ConversionSoftware": "dcm2niix",
  "ConversionSoftwareVersion": "v1.0.20240202",
  "DerivedVendorReportedEchoSpacing": 0.000510004,
  "DeviceSerialNumber": "35119",
  "DwellTime": 3.5e-06,
  "EchoTime": 0.03,
  "EffectiveEchoSpacing": 0.000510004,
  "FlipAngle": 78,
  "HeudiconvVersion": "1.1.6",
  "ImageComments": "V",
  "ImageOrientationPatientDICOM": [0.999178, 0.025661, 0.03138, 0, 0.774114, -0.633046],
  "ImageOrientationText": "Tra>Cor(-39.3)>Sag(2.3)",
  "ImageType": [
    "ORIGINAL",
    "PRIMARY",
    "M",
    "ND",
    "MOSAIC"
],
  "ImagingFrequency": 123.251786,
  "InPlanePhaseEncodingDirectionDICOM": "COL",
  "InstitutionAddress": "Chaucer Road  15,Cambridge,UK,GB,CB2 2EF",
  "InstitutionName": "MRC-CBU",
  "MRAcquisitionType": "2D",
  "MagneticFieldStrength": 3,
  "Manufacturer": "Siemens",
  "ManufacturersModelName": "TrioTim",
  "MatrixCoilMode": "SENSE",
  "Modality": "MR",
  "NonlinearGradientCorrection": false,
  "PartialFourier": 1,
  "PatientPosition": "HFS",
  "PercentPhaseFOV": 100,
  "PercentSampling": 100,
  "PhaseEncodingDirection": "j-",
  "PhaseEncodingSteps": 64,
  "PhaseResolution": 1,
  "PixelBandwidth": 2230,
  "ProcedureStepDescription": "CBU^Neuroimaging",
  "ProtocolName": "CBU_DWEPI_BOLD210",
  "PulseSequenceDetails": "%SiemensSeq%\\ep2d_bold",
  "ReceiveCoilName": "HeadMatrix",
  "ReconMatrixPE": 64,
  "RepetitionTime": 2,
  "SAR": 0.177458,
  "ScanOptions": "FS",
  "ScanningSequence": "EP",
  "SequenceName": "*epfid2d1_64",
  "SequenceVariant": "SK",
  "SeriesDescription": "CBU_DWEPI_BOLD210",
  "SeriesNumber": 10,
  "ShimSetting": [-7754, -8791, -2016, 580, 113, 67, -86, 23],
  "SliceThickness": 3,
  "SliceTiming": [0, 1.035, 0.06, 1.095, 0.1225, 1.155, 0.1825, 1.2175, 0.2425, 1.2775, 0.305, 1.3375, 0.365, 1.4, 0.425, 1.46, 0.4875, 1.52, 0.5475, 1.5825, 0.6075, 1.6425, 0.67, 1.7025, 0.73, 1.765, 0.79, 1.825, 0.8525, 1.885, 0.9125, 1.9475, 0.9725],
  "SoftwareVersions": "syngo MR B15",
  "SpacingBetweenSlices": 3.9,
  "StationName": "MRC35119",
  "TaskName": "faceprocessing",
  "TotalReadoutTime": 0.0321303,
  "TxRefAmp": 353.369,
  "dcmmeta_affine": [
    [-2.9975340366363525, 0.0, 0.15809153020381927, 98.53073120117188],
    [-0.0769829973578453, 2.3223419189453125, -2.4668500423431396, -26.370988845825195],
    [0.09414000064134598, 1.8991379737854004, 3.0165629386901855, -84.90180206298828],
    [0.0, 0.0, 0.0, 1.0]
],
  "dcmmeta_reorient_transform": [
    [0.0, -1.0, 0.0, 63.0],
    [1.0, 0.0, 0.0, 0.0],
    [0.0, 0.0, 1.0, 0.0],
    [0.0, 0.0, 0.0, 1.0]
],
  "dcmmeta_shape": [64, 64, 33, 210],
  "dcmmeta_slice_dim": 2,
  "dcmmeta_version": 0.6,
  "global": {
    "const": {
      "AcquisitionMatrix": [64, 0, 0, 64],
      "AngioFlag": "N",
      "BitsAllocated": 16,
      "BitsStored": 12,
      "Columns": 384,
      "EchoNumbers": 1,
      "EchoTime": 30.0,
      "EchoTrainLength": 1,
      "FlipAngle": 78.0,
      "HighBit": 11,
      "ImageOrientationPatient": [0.999178, 0.025661, 0.03138, -0.0, 0.774114, -0.633046],
      "ImagePositionPatient": [-578.136169, -503.828558, 323.543572],
      "ImageType": [
        "ORIGINAL",
        "PRIMARY",
        "M",
        "ND",
        "MOSAIC"
],
      "ImagedNucleus": "1H",
      "ImagingFrequency": 123.251786,
      "InPlanePhaseEncodingDirection": "COL",
      "MRAcquisitionType": "2D",
      "MagneticFieldStrength": 3.0,
      "Manufacturer": "SIEMENS",
      "ManufacturerModelName": "TrioTim",
      "Modality": "MR",
      "NumberOfAverages": 1.0,
      "NumberOfPhaseEncodingSteps": 64,
      "PercentPhaseFieldOfView": 100.0,
      "PercentSampling": 100.0,
      "PerformedProcedureStepStartTime": "135553.812000",
      "PhotometricInterpretation": "MONOCHROME2",
      "PixelAspectRatio": [1, 1],
      "PixelBandwidth": 2230.0,
      "PixelRepresentation": 0,
      "PixelSpacing": [3.0, 3.0],
      "ProtocolName": "CBU_DWEPI_BOLD210",
      "RepetitionTime": 2000.0,
      "Rows": 384,
      "SAR": 0.177458,
      "SamplesPerPixel": 1,
      "ScanOptions": "FS",
      "ScanningSequence": "EP",
      "SequenceName": "*epfid2d1_64",
      "SequenceVariant": "SK",
      "SeriesDescription": "CBU_DWEPI_BOLD210",
      "SeriesNumber": 10,
      "SeriesTime": "145833.125000",
      "SliceLocation": -44.994972,
      "SliceThickness": 3.0,
      "SmallestImagePixelValue": 0,
      "SoftwareVersions": "syngo MR B15",
      "SpacingBetweenSlices": 3.9,
      "SpecificCharacterSet": "ISO_IR 100",
      "StudyID": "1",
      "StudyTime": "135553.640000",
      "TransmitCoilName": "Body",
      "VariableFlipAngleFlag": "N",
      "WindowCenterWidthExplanation": "Algo1",
      "dBdt": 0.0},
    "slices": {}
  },
  "time": {
    "samples": {
      "AcquisitionNumber": [1, 2, 3, 4, 5, 6, 7, 8, 9, 10, 11, 12, 13, 14, 15, 16, 17, 18, 19, 20, 21, 22, 23, 24, 25, 26, 27, 28, 29, 30, 31, 32, 33, 34, 35, 36, 37, 38, 39, 40, 41, 42, 43, 44, 45, 46, 47, 48, 49, 50, 51, 52, 53, 54, 55, 56, 57, 58, 59, 60, 61, 62, 63, 64, 65, 66, 67, 68, 69, 70, 71, 72, 73, 74, 75, 76, 77, 78, 79, 80, 81, 82, 83, 84, 85, 86, 87, 88, 89, 90, 91, 92, 93, 94, 95, 96, 97, 98, 99, 100, 101, 102, 103, 104, 105, 106, 107, 108, 109, 110, 111, 112, 113, 114, 115, 116, 117, 118, 119, 120, 121, 122, 123, 124, 125, 126, 127, 128, 129, 130, 131, 132, 133, 134, 135, 136, 137, 138, 139, 140, 141, 142, 143, 144, 145, 146, 147, 148, 149, 150, 151, 152, 153, 154, 155, 156, 157, 158, 159, 160, 161, 162, 163, 164, 165, 166, 167, 168, 169, 170, 171, 172, 173, 174, 175, 176, 177, 178, 179, 180, 181, 182, 183, 184, 185, 186, 187, 188, 189, 190, 191, 192, 193, 194, 195, 196, 197, 198, 199, 200, 201, 202, 203, 204, 205, 206, 207, 208, 209, 210],
      "AcquisitionTime": ["145829.022500", "145831.030000", "145833.040000", "145835.047500", "145837.055000", "145839.062500", "145841.070000", "145843.080000", "145845.087500", "145847.095000", "145849.102500", "145851.110000", "145853.120000", "145855.127500", "145857.135000", "145859.142500", "145901.150000", "145903.160000", "145905.167500", "145907.175000", "145909.182500", "145911.192500", "145913.200000", "145915.207500", "145917.215000", "145919.222500", "145921.232500", "145923.240000", "145925.247500", "145927.255000", "145929.262500", "145931.272500", "145933.280000", "145935.287500", "145937.295000", "145939.305000", "145941.312500", "145943.320000", "145945.327500", "145947.335000", "145949.345000", "145951.352500", "145953.360000", "145955.367500", "145957.375000", "145959.385000", "150001.392500", "150003.400000", "150005.407500", "150007.417500", "150009.425000", "150011.432500", "150013.440000", "150015.447500", "150017.457500", "150019.465000", "150021.472500", "150023.480000", "150025.487500", "150027.497500", "150029.505000", "150031.512500", "150033.520000", "150035.527500", "150037.537500", "150039.545000", "150041.552500", "150043.560000", "150045.570000", "150047.577500", "150049.585000", "150051.592500", "150053.600000", "150055.610000", "150057.617500", "150059.625000", "150101.632500", "150103.640000", "150105.650000", "150107.657500", "150109.665000", "150111.672500", "150113.682500", "150115.690000", "150117.697500", "150119.705000", "150121.712500", "150123.722500", "150125.730000", "150127.737500", "150129.745000", "150131.752500", "150133.762500", "150135.770000", "150137.777500", "150139.785000", "150141.795000", "150143.802500", "150145.810000", "150147.817500", "150149.825000", "150151.835000", "150153.842500", "150155.850000", "150157.857500", "150159.865000", "150201.875000", "150203.882500", "150205.890000", "150207.897500", "150209.905000", "150211.915000", "150213.922500", "150215.930000", "150217.937500", "150219.947500", "150221.955000", "150223.962500", "150225.970000", "150227.977500", "150229.987500", "150231.995000", "150234.002500", "150236.010000", "150238.017500", "150240.027500", "150242.035000", "150244.042500", "150246.050000", "150248.060000", "150250.067500", "150252.075000", "150254.082500", "150256.090000", "150258.100000", "150300.107500", "150302.115000", "150304.122500", "150306.130000", "150308.140000", "150310.147500", "150312.155000", "150314.162500", "150316.172500", "150318.180000", "150320.187500", "150322.195000", "150324.202500", "150326.212500", "150328.220000", "150330.227500", "150332.235000", "150334.242500", "150336.252500", "150338.260000", "150340.267500", "150342.275000", "150344.285000", "150346.292500", "150348.300000", "150350.307500", "150352.315000", "150354.325000", "150356.332500", "150358.340000", "150400.347500", "150402.355000", "150404.365000", "150406.372500", "150408.380000", "150410.387500", "150412.395000", "150414.405000", "150416.412500", "150418.420000", "150420.427500", "150422.437500", "150424.445000", "150426.452500", "150428.460000", "150430.467500", "150432.477500", "150434.485000", "150436.492500", "150438.500000", "150440.507500", "150442.517500", "150444.525000", "150446.532500", "150448.540000", "150450.550000", "150452.557500", "150454.565000", "150456.572500", "150458.580000", "150500.590000", "150502.597500", "150504.605000", "150506.612500", "150508.620000", "150510.630000", "150512.637500", "150514.645000", "150516.652500", "150518.662500", "150520.670000", "150522.677500", "150524.685000", "150526.692500", "150528.702500"],
      "ContentTime": ["145833.125000", "145835.109000", "145837.109000", "145839.109000", "145841.109000", "145843.109000", "145845.109000", "145847.109000", "145849.109000", "145851.109000", "145853.609000", "145855.109000", "145857.109000", "145859.109000", "145901.109000", "145903.109000", "145905.109000", "145907.109000", "145909.109000", "145911.109000", "145913.109000", "145915.109000", "145917.109000", "145919.109000", "145921.109000", "145923.109000", "145925.109000", "145927.125000", "145929.109000", "145931.109000", "145933.109000", "145935.109000", "145937.109000", "145939.109000", "145941.125000", "145943.109000", "145945.109000", "145947.109000", "145949.109000", "145951.109000", "145953.109000", "145955.109000", "145957.109000", "145959.109000", "150001.109000", "150003.109000", "150005.109000", "150007.109000", "150009.109000", "150011.109000", "150013.109000", "150015.109000", "150017.109000", "150019.609000", "150021.109000", "150023.109000", "150025.109000", "150027.109000", "150029.109000", "150031.109000", "150033.109000", "150035.109000", "150037.109000", "150039.109000", "150041.109000", "150043.109000", "150045.109000", "150047.109000", "150049.109000", "150051.125000", "150053.109000", "150055.109000", "150057.109000", "150059.109000", "150101.109000", "150103.109000", "150105.109000", "150107.109000", "150109.109000", "150111.109000", "150113.109000", "150115.109000", "150117.109000", "150119.109000", "150121.609000", "150123.109000", "150125.109000", "150127.109000", "150129.109000", "150131.109000", "150133.109000", "150135.109000", "150137.109000", "150139.109000", "150141.109000", "150143.109000", "150145.109000", "150147.109000", "150149.109000", "150151.109000", "150153.109000", "150155.109000", "150157.109000", "150159.109000", "150201.109000", "150203.109000", "150205.109000", "150207.109000", "150209.109000", "150211.125000", "150213.109000", "150215.109000", "150217.125000", "150219.109000", "150221.609000", "150223.109000", "150225.109000", "150227.109000", "150229.109000", "150231.109000", "150233.109000", "150235.109000", "150237.109000", "150239.109000", "150241.109000", "150243.109000", "150245.109000", "150247.109000", "150249.125000", "150251.125000", "150253.109000", "150255.109000", "150257.109000", "150259.109000", "150301.109000", "150303.109000", "150305.109000", "150307.109000", "150309.109000", "150311.109000", "150313.109000", "150315.109000", "150317.109000", "150319.109000", "150321.109000", "150323.109000", "150325.125000", "150327.109000", "150329.109000", "150331.109000", "150333.109000", "150335.109000", "150337.109000", "150339.109000", "150341.609000", "150343.109000", "150345.109000", "150347.109000", "150349.125000", "150351.109000", "150353.109000", "150355.109000", "150357.109000", "150359.109000", "150401.109000", "150403.109000", "150405.109000", "150407.109000", "150409.109000", "150411.109000", "150413.109000", "150415.109000", "150417.109000", "150419.109000", "150421.109000", "150423.109000", "150425.109000", "150427.109000", "150429.109000", "150431.109000", "150433.109000", "150435.109000", "150437.109000", "150439.109000", "150441.125000", "150443.109000", "150445.609000", "150447.109000", "150449.109000", "150451.109000", "150453.109000", "150455.109000", "150457.109000", "150459.109000", "150501.109000", "150503.109000", "150505.109000", "150507.109000", "150509.109000", "150511.125000", "150513.109000", "150515.109000", "150517.125000", "150519.109000", "150521.109000", "150523.125000", "150525.125000", "150527.109000", "150529.109000", "150530.921000"],
      "InstanceCreationTime": ["145833.125000", "145835.109000", "145837.109000", "145839.109000", "145841.109000", "145843.109000", "145845.109000", "145847.109000", "145849.109000", "145851.109000", "145853.609000", "145855.109000", "145857.109000", "145859.109000", "145901.109000", "145903.109000", "145905.109000", "145907.109000", "145909.109000", "145911.109000", "145913.109000", "145915.109000", "145917.109000", "145919.109000", "145921.109000", "145923.109000", "145925.109000", "145927.125000", "145929.109000", "145931.109000", "145933.109000", "145935.109000", "145937.109000", "145939.109000", "145941.125000", "145943.109000", "145945.109000", "145947.109000", "145949.109000", "145951.109000", "145953.109000", "145955.109000", "145957.109000", "145959.109000", "150001.109000", "150003.109000", "150005.109000", "150007.109000", "150009.109000", "150011.109000", "150013.109000", "150015.109000", "150017.109000", "150019.609000", "150021.109000", "150023.109000", "150025.109000", "150027.109000", "150029.109000", "150031.109000", "150033.109000", "150035.109000", "150037.109000", "150039.109000", "150041.109000", "150043.109000", "150045.109000", "150047.109000", "150049.109000", "150051.125000", "150053.109000", "150055.109000", "150057.109000", "150059.109000", "150101.109000", "150103.109000", "150105.109000", "150107.109000", "150109.109000", "150111.109000", "150113.109000", "150115.109000", "150117.109000", "150119.109000", "150121.609000", "150123.109000", "150125.109000", "150127.109000", "150129.109000", "150131.109000", "150133.109000", "150135.109000", "150137.109000", "150139.109000", "150141.109000", "150143.109000", "150145.109000", "150147.109000", "150149.109000", "150151.109000", "150153.109000", "150155.109000", "150157.109000", "150159.109000", "150201.109000", "150203.109000", "150205.109000", "150207.109000", "150209.109000", "150211.125000", "150213.109000", "150215.109000", "150217.125000", "150219.109000", "150221.609000", "150223.109000", "150225.109000", "150227.109000", "150229.109000", "150231.109000", "150233.109000", "150235.109000", "150237.109000", "150239.109000", "150241.109000", "150243.109000", "150245.109000", "150247.109000", "150249.125000", "150251.125000", "150253.109000", "150255.109000", "150257.109000", "150259.109000", "150301.109000", "150303.109000", "150305.109000", "150307.109000", "150309.109000", "150311.109000", "150313.109000", "150315.109000", "150317.109000", "150319.109000", "150321.109000", "150323.109000", "150325.125000", "150327.109000", "150329.109000", "150331.109000", "150333.109000", "150335.109000", "150337.109000", "150339.109000", "150341.609000", "150343.109000", "150345.109000", "150347.109000", "150349.125000", "150351.109000", "150353.109000", "150355.109000", "150357.109000", "150359.109000", "150401.109000", "150403.109000", "150405.109000", "150407.109000", "150409.109000", "150411.109000", "150413.109000", "150415.109000", "150417.109000", "150419.109000", "150421.109000", "150423.109000", "150425.109000", "150427.109000", "150429.109000", "150431.109000", "150433.109000", "150435.109000", "150437.109000", "150439.109000", "150441.125000", "150443.109000", "150445.609000", "150447.109000", "150449.109000", "150451.109000", "150453.109000", "150455.109000", "150457.109000", "150459.109000", "150501.109000", "150503.109000", "150505.109000", "150507.109000", "150509.109000", "150511.125000", "150513.109000", "150515.109000", "150517.125000", "150519.109000", "150521.109000", "150523.125000", "150525.125000", "150527.109000", "150529.109000", "150530.921000"],
      "InstanceNumber": [1, 2, 3, 4, 5, 6, 7, 8, 9, 10, 11, 12, 13, 14, 15, 16, 17, 18, 19, 20, 21, 22, 23, 24, 25, 26, 27, 28, 29, 30, 31, 32, 33, 34, 35, 36, 37, 38, 39, 40, 41, 42, 43, 44, 45, 46, 47, 48, 49, 50, 51, 52, 53, 54, 55, 56, 57, 58, 59, 60, 61, 62, 63, 64, 65, 66, 67, 68, 69, 70, 71, 72, 73, 74, 75, 76, 77, 78, 79, 80, 81, 82, 83, 84, 85, 86, 87, 88, 89, 90, 91, 92, 93, 94, 95, 96, 97, 98, 99, 100, 101, 102, 103, 104, 105, 106, 107, 108, 109, 110, 111, 112, 113, 114, 115, 116, 117, 118, 119, 120, 121, 122, 123, 124, 125, 126, 127, 128, 129, 130, 131, 132, 133, 134, 135, 136, 137, 138, 139, 140, 141, 142, 143, 144, 145, 146, 147, 148, 149, 150, 151, 152, 153, 154, 155, 156, 157, 158, 159, 160, 161, 162, 163, 164, 165, 166, 167, 168, 169, 170, 171, 172, 173, 174, 175, 176, 177, 178, 179, 180, 181, 182, 183, 184, 185, 186, 187, 188, 189, 190, 191, 192, 193, 194, 195, 196, 197, 198, 199, 200, 201, 202, 203, 204, 205, 206, 207, 208, 209, 210],
      "LargestImagePixelValue": [2244, 1967, 2240, 1928, 1937, 1925, 1936, 1928, 1918, 1926, 2084, 1948, 1927, 1928, 1920, 1912, 2085, 2088, 1925, 1916, 1929, 1951, 2006, 1980, 1976, 1926, 2359, 2338, 2288, 2382, 2553, 2549, 1899, 1900, 1935, 1928, 1925, 2045, 1914, 1920, 1935, 1977, 1957, 1920, 1927, 2158, 2134, 2499, 2506, 2408, 1920, 1939, 1914, 1945, 1979, 1924, 2336, 2527, 2486, 2338, 1923, 1932, 1961, 1947, 2062, 1936, 1924, 1940, 1932, 2379, 2423, 1913, 1908, 1926, 1945, 1930, 1947, 1946, 1955, 1952, 1980, 1957, 1986, 1959, 1968, 1998, 2322, 2410, 2510, 2526, 2440, 2411, 1959, 1972, 2011, 1938, 1963, 1969, 1953, 1993, 1973, 1953, 1951, 1968, 1983, 1969, 1932, 1963, 1963, 2024, 1984, 1983, 2166, 2081, 1934, 1937, 2331, 1921, 1961, 1944, 2093, 1919, 2019, 1964, 1943, 2325, 2331, 1926, 1934, 1908, 1934, 1944, 2027, 1961, 1952, 1978, 1924, 1949, 1961, 2457, 1946, 2004, 1998, 1927, 1995, 2150, 2246, 2496, 2410, 2522, 2189, 1922, 2015, 1941, 2037, 1921, 1940, 1935, 1963, 1933, 1946, 1954, 1939, 1942, 1929, 2014, 1950, 1947, 1937, 1938, 2586, 2579, 2221, 1966, 1951, 2149, 1928, 1942, 1923, 1918, 2008, 2035, 2085, 1960, 2048, 2371, 2475, 2451, 1901, 1923, 1924, 1908, 1918, 1916, 1911, 1916, 1908, 1952, 1935, 1923, 2010, 1912, 1913, 1901, 1936, 1942, 1928, 1921, 1949, 1932],
      "WindowCenter": [756.0, 752.0, 753.0, 751.0, 751.0, 752.0, 755.0, 754.0, 752.0, 751.0, 752.0, 752.0, 754.0, 755.0, 754.0, 753.0, 753.0, 752.0, 752.0, 752.0, 753.0, 760.0, 758.0, 755.0, 756.0, 755.0, 758.0, 752.0, 749.0, 749.0, 747.0, 745.0, 743.0, 746.0, 750.0, 750.0, 750.0, 751.0, 751.0, 750.0, 750.0, 750.0, 752.0, 755.0, 755.0, 755.0, 756.0, 753.0, 750.0, 750.0, 749.0, 749.0, 751.0, 754.0, 755.0, 752.0, 753.0, 752.0, 751.0, 749.0, 747.0, 750.0, 753.0, 757.0, 759.0, 756.0, 750.0, 749.0, 748.0, 749.0, 748.0, 745.0, 745.0, 747.0, 749.0, 750.0, 751.0, 751.0, 752.0, 753.0, 754.0, 754.0, 755.0, 757.0, 759.0, 757.0, 757.0, 757.0, 755.0, 752.0, 750.0, 751.0, 750.0, 750.0, 750.0, 750.0, 750.0, 749.0, 750.0, 750.0, 749.0, 750.0, 752.0, 752.0, 750.0, 749.0, 750.0, 752.0, 754.0, 754.0, 753.0, 755.0, 752.0, 751.0, 748.0, 748.0, 750.0, 750.0, 751.0, 751.0, 753.0, 754.0, 757.0, 755.0, 753.0, 752.0, 749.0, 746.0, 746.0, 747.0, 748.0, 750.0, 754.0, 754.0, 755.0, 754.0, 753.0, 753.0, 752.0, 753.0, 751.0, 754.0, 756.0, 751.0, 738.0, 769.0, 763.0, 760.0, 749.0, 747.0, 745.0, 744.0, 748.0, 751.0, 752.0, 752.0, 753.0, 753.0, 752.0, 753.0, 754.0, 754.0, 753.0, 754.0, 752.0, 755.0, 756.0, 754.0, 753.0, 754.0, 755.0, 754.0, 753.0, 751.0, 750.0, 751.0, 749.0, 749.0, 749.0, 749.0, 752.0, 758.0, 759.0, 765.0, 759.0, 755.0, 748.0, 746.0, 744.0, 748.0, 750.0, 752.0, 752.0, 752.0, 753.0, 753.0, 752.0, 754.0, 756.0, 757.0, 754.0, 752.0, 751.0, 751.0, 751.0, 751.0, 752.0, 753.0, 754.0, 757.0],
      "WindowWidth": [1609.0, 1597.0, 1599.0, 1594.0, 1594.0, 1597.0, 1604.0, 1600.0, 1597.0, 1594.0, 1596.0, 1598.0, 1602.0, 1604.0, 1602.0, 1598.0, 1599.0, 1598.0, 1596.0, 1597.0, 1600.0, 1618.0, 1613.0, 1606.0, 1606.0, 1604.0, 1612.0, 1597.0, 1589.0, 1588.0, 1583.0, 1579.0, 1575.0, 1582.0, 1591.0, 1591.0, 1592.0, 1595.0, 1595.0, 1593.0, 1591.0, 1592.0, 1597.0, 1604.0, 1603.0, 1604.0, 1606.0, 1600.0, 1592.0, 1591.0, 1589.0, 1590.0, 1594.0, 1601.0, 1605.0, 1597.0, 1599.0, 1598.0, 1594.0, 1590.0, 1584.0, 1591.0, 1601.0, 1608.0, 1613.0, 1607.0, 1592.0, 1589.0, 1587.0, 1589.0, 1586.0, 1579.0, 1580.0, 1584.0, 1589.0, 1592.0, 1594.0, 1594.0, 1596.0, 1600.0, 1602.0, 1601.0, 1603.0, 1611.0, 1616.0, 1610.0, 1609.0, 1609.0, 1605.0, 1596.0, 1592.0, 1595.0, 1593.0, 1591.0, 1593.0, 1592.0, 1591.0, 1590.0, 1593.0, 1591.0, 1589.0, 1592.0, 1596.0, 1596.0, 1591.0, 1590.0, 1591.0, 1596.0, 1602.0, 1602.0, 1600.0, 1606.0, 1596.0, 1594.0, 1588.0, 1587.0, 1593.0, 1592.0, 1594.0, 1594.0, 1598.0, 1601.0, 1607.0, 1605.0, 1598.0, 1596.0, 1589.0, 1581.0, 1582.0, 1585.0, 1587.0, 1592.0, 1604.0, 1602.0, 1604.0, 1602.0, 1598.0, 1599.0, 1596.0, 1600.0, 1596.0, 1601.0, 1607.0, 1593.0, 1564.0, 1641.0, 1624.0, 1615.0, 1589.0, 1584.0, 1578.0, 1577.0, 1587.0, 1592.0, 1595.0, 1594.0, 1598.0, 1597.0, 1596.0, 1598.0, 1601.0, 1600.0, 1599.0, 1600.0, 1597.0, 1604.0, 1607.0, 1602.0, 1599.0, 1600.0, 1604.0, 1602.0, 1599.0, 1594.0, 1592.0, 1593.0, 1589.0, 1589.0, 1588.0, 1588.0, 1596.0, 1612.0, 1616.0, 1628.0, 1613.0, 1602.0, 1585.0, 1580.0, 1575.0, 1587.0, 1591.0, 1596.0, 1596.0, 1597.0, 1598.0, 1597.0, 1596.0, 1601.0, 1607.0, 1608.0, 1602.0, 1595.0, 1593.0, 1593.0, 1593.0, 1594.0, 1596.0, 1598.0, 1601.0, 1610.0]
    },
    "slices": {}
  }
}