{
  "AcquisitionMatrixPE": 64,
  "AcquisitionNumber": 1,
  "AcquisitionTime": "15:05:48.067500",
  "BandwidthPerPixelPhaseEncode": 30.637,
  "BaseResolution": 64,
  "BidsGuess": [
    "func",
    "_acq-epfid2_dir-AP_run-11_bold"
],
  "CoilCombinationMethod": "Sum of Squares",
  "CoilString": "C:HEA;HEP",
  "ConversionSoftware": "dcm2niix",
  "ConversionSoftwareVersion": "v1.0.20240202",
  "DerivedVendorReportedEchoSpacing": 0.000510004,
  "DeviceSerialNumber": "35119",
  "DwellTime": 3.5e-06,
  "EchoTime": 0.03,
  "EffectiveEchoSpacing": 0.000510004,
  "FlipAngle": 78,
  "HeudiconvVersion": "1.1.6",
  "ImageComments": "V",
  "ImageOrientationPatientDICOM": [0.999178, 0.025661, 0.03138, 0, 0.774114, -0.633046],
  "ImageOrientationText": "Tra>Cor(-39.3)>Sag(2.3)",
  "ImageType": [
    "ORIGINAL",
    "PRIMARY",
    "M",
    "ND",
    "MOSAIC"
],
  "ImagingFrequency": 123.251786,
  "InPlanePhaseEncodingDirectionDICOM": "COL",
  "InstitutionAddress": "Chaucer Road  15,Cambridge,UK,GB,CB2 2EF",
  "InstitutionName": "MRC-CBU",
  "MRAcquisitionType": "2D",
  "MagneticFieldStrength": 3,
  "Manufacturer": "Siemens",
  "ManufacturersModelName": "TrioTim",
  "MatrixCoilMode": "SENSE",
  "Modality": "MR",
  "NonlinearGradientCorrection": false,
  "PartialFourier": 1,
  "PatientPosition": "HFS",
  "PercentPhaseFOV": 100,
  "PercentSampling": 100,
  "PhaseEncodingDirection": "j-",
  "PhaseEncodingSteps": 64,
  "PhaseResolution": 1,
  "PixelBandwidth": 2230,
  "ProcedureStepDescription": "CBU^Neuroimaging",
  "ProtocolName": "CBU_DWEPI_BOLD210",
  "PulseSequenceDetails": "%SiemensSeq%\\ep2d_bold",
  "ReceiveCoilName": "HeadMatrix",
  "ReconMatrixPE": 64,
  "RepetitionTime": 2,
  "SAR": 0.177458,
  "ScanOptions": "FS",
  "ScanningSequence": "EP",
  "SequenceName": "*epfid2d1_64",
  "SequenceVariant": "SK",
  "SeriesDescription": "CBU_DWEPI_BOLD210",
  "SeriesNumber": 11,
  "ShimSetting": [-7754, -8791, -2016, 580, 113, 67, -86, 23],
  "SliceThickness": 3,
  "SliceTiming": [0, 1.035, 0.0625, 1.095, 0.1225, 1.1575, 0.1825, 1.2175, 0.245, 1.2775, 0.305, 1.34, 0.365, 1.4, 0.4275, 1.46, 0.4875, 1.5225, 0.5475, 1.5825, 0.61, 1.6425, 0.67, 1.705, 0.73, 1.765, 0.7925, 1.825, 0.8525, 1.8875, 0.9125, 1.9475, 0.975],
  "SoftwareVersions": "syngo MR B15",
  "SpacingBetweenSlices": 3.9,
  "StationName": "MRC35119",
  "TaskName": "faceprocessing",
  "TotalReadoutTime": 0.0321303,
  "TxRefAmp": 353.369,
  "dcmmeta_affine": [
    [-2.9975340366363525, 0.0, 0.15809153020381927, 98.53073120117188],
    [-0.0769829973578453, 2.3223419189453125, -2.4668500423431396, -26.370988845825195],
    [0.09414000064134598, 1.8991379737854004, 3.0165629386901855, -84.90180206298828],
    [0.0, 0.0, 0.0, 1.0]
],
  "dcmmeta_reorient_transform": [
    [0.0, -1.0, 0.0, 63.0],
    [1.0, 0.0, 0.0, 0.0],
    [0.0, 0.0, 1.0, 0.0],
    [0.0, 0.0, 0.0, 1.0]
],
  "dcmmeta_shape": [64, 64, 33, 210],
  "dcmmeta_slice_dim": 2,
  "dcmmeta_version": 0.6,
  "global": {
    "const": {
      "AcquisitionMatrix": [64, 0, 0, 64],
      "AngioFlag": "N",
      "BitsAllocated": 16,
      "BitsStored": 12,
      "Columns": 384,
      "EchoNumbers": 1,
      "EchoTime": 30.0,
      "EchoTrainLength": 1,
      "FlipAngle": 78.0,
      "HighBit": 11,
      "ImageOrientationPatient": [0.999178, 0.025661, 0.03138, -0.0, 0.774114, -0.633046],
      "ImagePositionPatient": [-578.136169, -503.828558, 323.543572],
      "ImageType": [
        "ORIGINAL",
        "PRIMARY",
        "M",
        "ND",
        "MOSAIC"
],
      "ImagedNucleus": "1H",
      "ImagingFrequency": 123.251786,
      "InPlanePhaseEncodingDirection": "COL",
      "MRAcquisitionType": "2D",
      "MagneticFieldStrength": 3.0,
      "Manufacturer": "SIEMENS",
      "ManufacturerModelName": "TrioTim",
      "Modality": "MR",
      "NumberOfAverages": 1.0,
      "NumberOfPhaseEncodingSteps": 64,
      "PercentPhaseFieldOfView": 100.0,
      "PercentSampling": 100.0,
      "PerformedProcedureStepStartTime": "135553.812000",
      "PhotometricInterpretation": "MONOCHROME2",
      "PixelAspectRatio": [1, 1],
      "PixelBandwidth": 2230.0,
      "PixelRepresentation": 0,
      "PixelSpacing": [3.0, 3.0],
      "ProtocolName": "CBU_DWEPI_BOLD210",
      "RepetitionTime": 2000.0,
      "Rows": 384,
      "SAR": 0.177458,
      "SamplesPerPixel": 1,
      "ScanOptions": "FS",
      "ScanningSequence": "EP",
      "SequenceName": "*epfid2d1_64",
      "SequenceVariant": "SK",
      "SeriesDescription": "CBU_DWEPI_BOLD210",
      "SeriesNumber": 11,
      "SeriesTime": "150551.765000",
      "SliceLocation": -44.994972,
      "SliceThickness": 3.0,
      "SmallestImagePixelValue": 0,
      "SoftwareVersions": "syngo MR B15",
      "SpacingBetweenSlices": 3.9,
      "SpecificCharacterSet": "ISO_IR 100",
      "StudyID": "1",
      "StudyTime": "135553.640000",
      "TransmitCoilName": "Body",
      "VariableFlipAngleFlag": "N",
      "WindowCenterWidthExplanation": "Algo1",
      "dBdt": 0.0},
    "slices": {}
  },
  "time": {
    "samples": {
      "AcquisitionNumber": [1, 2, 3, 4, 5, 6, 7, 8, 9, 10, 11, 12, 13, 14, 15, 16, 17, 18, 19, 20, 21, 22, 23, 24, 25, 26, 27, 28, 29, 30, 31, 32, 33, 34, 35, 36, 37, 38, 39, 40, 41, 42, 43, 44, 45, 46, 47, 48, 49, 50, 51, 52, 53, 54, 55, 56, 57, 58, 59, 60, 61, 62, 63, 64, 65, 66, 67, 68, 69, 70, 71, 72, 73, 74, 75, 76, 77, 78, 79, 80, 81, 82, 83, 84, 85, 86, 87, 88, 89, 90, 91, 92, 93, 94, 95, 96, 97, 98, 99, 100, 101, 102, 103, 104, 105, 106, 107, 108, 109, 110, 111, 112, 113, 114, 115, 116, 117, 118, 119, 120, 121, 122, 123, 124, 125, 126, 127, 128, 129, 130, 131, 132, 133, 134, 135, 136, 137, 138, 139, 140, 141, 142, 143, 144, 145, 146, 147, 148, 149, 150, 151, 152, 153, 154, 155, 156, 157, 158, 159, 160, 161, 162, 163, 164, 165, 166, 167, 168, 169, 170, 171, 172, 173, 174, 175, 176, 177, 178, 179, 180, 181, 182, 183, 184, 185, 186, 187, 188, 189, 190, 191, 192, 193, 194, 195, 196, 197, 198, 199, 200, 201, 202, 203, 204, 205, 206, 207, 208, 209, 210],
      "AcquisitionTime": ["150548.067500", "150550.075000", "150552.085000", "150554.092500", "150556.100000", "150558.107500", "150600.117500", "150602.125000", "150604.132500", "150606.140000", "150608.147500", "150610.157500", "150612.165000", "150614.172500", "150616.180000", "150618.187500", "150620.197500", "150622.205000", "150624.212500", "150626.220000", "150628.230000", "150630.237500", "150632.245000", "150634.252500", "150636.260000", "150638.270000", "150640.277500", "150642.285000", "150644.292500", "150646.300000", "150648.310000", "150650.317500", "150652.325000", "150654.332500", "150656.340000", "150658.350000", "150700.357500", "150702.365000", "150704.372500", "150706.382500", "150708.390000", "150710.397500", "150712.405000", "150714.412500", "150716.422500", "150718.430000", "150720.437500", "150722.445000", "150724.452500", "150726.462500", "150728.470000", "150730.477500", "150732.485000", "150734.495000", "150736.502500", "150738.510000", "150740.517500", "150742.525000", "150744.535000", "150746.542500", "150748.550000", "150750.557500", "150752.565000", "150754.575000", "150756.582500", "150758.590000", "150800.597500", "150802.607500", "150804.615000", "150806.622500", "150808.630000", "150810.637500", "150812.647500", "150814.655000", "150816.662500", "150818.670000", "150820.677500", "150822.687500", "150824.695000", "150826.702500", "150828.710000", "150830.717500", "150832.727500", "150834.735000", "150836.742500", "150838.750000", "150840.760000", "150842.767500", "150844.775000", "150846.782500", "150848.790000", "150850.800000", "150852.807500", "150854.815000", "150856.822500", "150858.830000", "150900.840000", "150902.847500", "150904.855000", "150906.862500", "150908.872500", "150910.880000", "150912.887500", "150914.895000", "150916.902500", "150918.912500", "150920.920000", "150922.927500", "150924.935000", "150926.942500", "150928.952500", "150930.960000", "150932.967500", "150934.975000", "150936.985000", "150938.992500", "150941.000000", "150943.007500", "150945.015000", "150947.025000", "150949.032500", "150951.040000", "150953.047500", "150955.055000", "150957.065000", "150959.072500", "151001.080000", "151003.087500", "151005.097500", "151007.105000", "151009.112500", "151011.120000", "151013.127500", "151015.137500", "151017.145000", "151019.152500", "151021.160000", "151023.167500", "151025.177500", "151027.185000", "151029.192500", "151031.200000", "151033.207500", "151035.217500", "151037.225000", "151039.232500", "151041.240000", "151043.250000", "151045.257500", "151047.265000", "151049.272500", "151051.280000", "151053.290000", "151055.297500", "151057.305000", "151059.312500", "151101.320000", "151103.330000", "151105.337500", "151107.345000", "151109.352500", "151111.362500", "151113.370000", "151115.377500", "151117.385000", "151119.392500", "151121.402500", "151123.410000", "151125.417500", "151127.425000", "151129.432500", "151131.442500", "151133.450000", "151135.457500", "151137.465000", "151139.475000", "151141.482500", "151143.490000", "151145.497500", "151147.505000", "151149.515000", "151151.522500", "151153.530000", "151155.537500", "151157.545000", "151159.555000", "151201.562500", "151203.570000", "151205.577500", "151207.585000", "151209.595000", "151211.602500", "151213.610000", "151215.617500", "151217.627500", "151219.635000", "151221.642500", "151223.650000", "151225.657500", "151227.667500", "151229.675000", "151231.682500", "151233.690000", "151235.697500", "151237.707500", "151239.715000", "151241.722500", "151243.730000", "151245.740000", "151247.747500"],
      "ContentTime": ["150551.781000", "150553.765000", "150555.765000", "150557.765000", "150559.765000", "150601.765000", "150603.765000", "150605.765000", "150607.765000", "150609.765000", "150611.765000", "150613.765000", "150615.765000", "150617.765000", "150619.765000", "150621.765000", "150623.765000", "150625.765000", "150627.765000", "150629.765000", "150631.765000", "150633.765000", "150635.765000", "150637.765000", "150639.765000", "150641.765000", "150643.765000", "150645.765000", "150647.765000", "150649.765000", "150651.765000", "150653.765000", "150655.765000", "150657.765000", "150659.765000", "150701.765000", "150703.765000", "150705.765000", "150707.765000", "150709.765000", "150711.765000", "150713.765000", "150715.765000", "150717.765000", "150719.765000", "150721.765000", "150723.765000", "150725.765000", "150727.765000", "150729.765000", "150731.765000", "150733.765000", "150735.765000", "150737.765000", "150739.765000", "150741.765000", "150743.765000", "150745.765000", "150747.765000", "150749.765000", "150751.765000", "150753.765000", "150755.765000", "150757.765000", "150759.765000", "150801.765000", "150803.765000", "150805.765000", "150807.765000", "150809.765000", "150811.765000", "150813.765000", "150815.765000", "150817.765000", "150819.765000", "150821.765000", "150823.765000", "150825.765000", "150827.765000", "150829.765000", "150831.765000", "150833.765000", "150835.765000", "150837.765000", "150839.765000", "150841.765000", "150843.765000", "150845.765000", "150847.765000", "150849.765000", "150851.765000", "150853.765000", "150855.765000", "150857.765000", "150859.765000", "150901.765000", "150903.765000", "150905.765000", "150907.765000", "150909.765000", "150911.765000", "150913.765000", "150915.765000", "150917.765000", "150919.765000", "150921.765000", "150923.765000", "150925.765000", "150927.765000", "150929.765000", "150931.765000", "150933.765000", "150935.765000", "150937.765000", "150939.765000", "150941.765000", "150943.765000", "150945.765000", "150947.765000", "150949.765000", "150951.765000", "150953.765000", "150955.765000", "150957.765000", "150959.765000", "151001.765000", "151003.765000", "151005.765000", "151007.765000", "151009.765000", "151011.765000", "151013.765000", "151015.765000", "151017.765000", "151019.765000", "151021.765000", "151023.765000", "151025.765000", "151027.765000", "151029.765000", "151031.765000", "151033.765000", "151035.765000", "151037.765000", "151039.765000", "151041.765000", "151043.765000", "151045.765000", "151047.765000", "151049.765000", "151051.765000", "151053.765000", "151055.765000", "151057.765000", "151059.765000", "151101.765000", "151103.765000", "151105.765000", "151107.765000", "151109.765000", "151111.765000", "151113.765000", "151115.765000", "151117.765000", "151119.765000", "151121.765000", "151123.765000", "151125.765000", "151127.765000", "151129.765000", "151131.765000", "151133.765000", "151135.765000", "151137.765000", "151139.765000", "151141.765000", "151143.765000", "151145.765000", "151147.765000", "151149.765000", "151151.765000", "151153.765000", "151155.765000", "151157.765000", "151159.765000", "151201.765000", "151203.765000", "151205.765000", "151207.765000", "151209.765000", "151211.765000", "151213.765000", "151215.765000", "151217.765000", "151219.765000", "151221.765000", "151223.765000", "151225.765000", "151227.765000", "151229.765000", "151231.765000", "151233.765000", "151235.765000", "151237.765000", "151239.765000", "151241.765000", "151243.765000", "151245.765000", "151247.765000", "151249.515000"],
      "InstanceCreationTime": ["150551.781000", "150553.765000", "150555.765000", "150557.765000", "150559.765000", "150601.765000", "150603.765000", "150605.765000", "150607.765000", "150609.765000", "150611.765000", "150613.765000", "150615.765000", "150617.765000", "150619.765000", "150621.765000", "150623.765000", "150625.765000", "150627.765000", "150629.765000", "150631.765000", "150633.765000", "150635.765000", "150637.765000", "150639.765000", "150641.765000", "150643.765000", "150645.765000", "150647.765000", "150649.765000", "150651.765000", "150653.765000", "150655.765000", "150657.765000", "150659.765000", "150701.765000", "150703.765000", "150705.765000", "150707.765000", "150709.765000", "150711.765000", "150713.765000", "150715.765000", "150717.765000", "150719.765000", "150721.765000", "150723.765000", "150725.765000", "150727.765000", "150729.765000", "150731.765000", "150733.765000", "150735.765000", "150737.765000", "150739.765000", "150741.765000", "150743.765000", "150745.765000", "150747.765000", "150749.765000", "150751.765000", "150753.765000", "150755.765000", "150757.765000", "150759.765000", "150801.765000", "150803.765000", "150805.765000", "150807.765000", "150809.765000", "150811.765000", "150813.765000", "150815.765000", "150817.765000", "150819.765000", "150821.765000", "150823.765000", "150825.765000", "150827.765000", "150829.765000", "150831.765000", "150833.765000", "150835.765000", "150837.765000", "150839.765000", "150841.765000", "150843.765000", "150845.765000", "150847.765000", "150849.765000", "150851.765000", "150853.765000", "150855.765000", "150857.765000", "150859.765000", "150901.765000", "150903.765000", "150905.765000", "150907.765000", "150909.765000", "150911.765000", "150913.765000", "150915.765000", "150917.765000", "150919.765000", "150921.765000", "150923.765000", "150925.765000", "150927.765000", "150929.765000", "150931.765000", "150933.765000", "150935.765000", "150937.765000", "150939.765000", "150941.765000", "150943.765000", "150945.765000", "150947.765000", "150949.765000", "150951.765000", "150953.765000", "150955.765000", "150957.765000", "150959.765000", "151001.765000", "151003.765000", "151005.765000", "151007.765000", "151009.765000", "151011.765000", "151013.765000", "151015.765000", "151017.765000", "151019.765000", "151021.765000", "151023.765000", "151025.765000", "151027.765000", "151029.765000", "151031.765000", "151033.765000", "151035.765000", "151037.765000", "151039.765000", "151041.765000", "151043.765000", "151045.765000", "151047.765000", "151049.765000", "151051.765000", "151053.765000", "151055.765000", "151057.765000", "151059.765000", "151101.765000", "151103.765000", "151105.765000", "151107.765000", "151109.765000", "151111.765000", "151113.765000", "151115.765000", "151117.765000", "151119.765000", "151121.765000", "151123.765000", "151125.765000", "151127.765000", "151129.765000", "151131.765000", "151133.765000", "151135.765000", "151137.765000", "151139.765000", "151141.765000", "151143.765000", "151145.765000", "151147.765000", "151149.765000", "151151.765000", "151153.765000", "151155.765000", "151157.765000", "151159.765000", "151201.765000", "151203.765000", "151205.765000", "151207.765000", "151209.765000", "151211.765000", "151213.765000", "151215.765000", "151217.765000", "151219.765000", "151221.765000", "151223.765000", "151225.765000", "151227.765000", "151229.765000", "151231.765000", "151233.765000", "151235.765000", "151237.765000", "151239.765000", "151241.765000", "151243.765000", "151245.765000", "151247.765000", "151249.515000"],
      "InstanceNumber": [1, 2, 3, 4, 5, 6, 7, 8, 9, 10, 11, 12, 13, 14, 15, 16, 17, 18, 19, 20, 21, 22, 23, 24, 25, 26, 27, 28, 29, 30, 31, 32, 33, 34, 35, 36, 37, 38, 39, 40, 41, 42, 43, 44, 45, 46, 47, 48, 49, 50, 51, 52, 53, 54, 55, 56, 57, 58, 59, 60, 61, 62, 63, 64, 65, 66, 67, 68, 69, 70, 71, 72, 73, 74, 75, 76, 77, 78, 79, 80, 81, 82, 83, 84, 85, 86, 87, 88, 89, 90, 91, 92, 93, 94, 95, 96, 97, 98, 99, 100, 101, 102, 103, 104, 105, 106, 107, 108, 109, 110, 111, 112, 113, 114, 115, 116, 117, 118, 119, 120, 121, 122, 123, 124, 125, 126, 127, 128, 129, 130, 131, 132, 133, 134, 135, 136, 137, 138, 139, 140, 141, 142, 143, 144, 145, 146, 147, 148, 149, 150, 151, 152, 153, 154, 155, 156, 157, 158, 159, 160, 161, 162, 163, 164, 165, 166, 167, 168, 169, 170, 171, 172, 173, 174, 175, 176, 177, 178, 179, 180, 181, 182, 183, 184, 185, 186, 187, 188, 189, 190, 191, 192, 193, 194, 195, 196, 197, 198, 199, 200, 201, 202, 203, 204, 205, 206, 207, 208, 209, 210],
      "LargestImagePixelValue": [2027, 1988, 1953, 1935, 1953, 1946, 1953, 1935, 1944, 1955, 1983, 1930, 1892, 1885, 1873, 1896, 1920, 1906, 2144, 1956, 2466, 2111, 1991, 2276, 2605, 2570, 1947, 1980, 1963, 1948, 1980, 2020, 1948, 1960, 1971, 2452, 1949, 1963, 1970, 1950, 1957, 1965, 1945, 1954, 1935, 2475, 1959, 1988, 2103, 2024, 1968, 1980, 1969, 2239, 2528, 1956, 1976, 1980, 2022, 1983, 2031, 2022, 2082, 2469, 1887, 2277, 1876, 1919, 1891, 1952, 1927, 1870, 1862, 2481, 1992, 1885, 1872, 2083, 1879, 2349, 1956, 2009, 1926, 1928, 1878, 1960, 1912, 1882, 2126, 1875, 1922, 1896, 1890, 1965, 1924, 1916, 1901, 2159, 2473, 1882, 1879, 1935, 1955, 2253, 2562, 1872, 1865, 1870, 1873, 1875, 1877, 1864, 1871, 1887, 1967, 1955, 1901, 1993, 1888, 1881, 2091, 2310, 2299, 2246, 1901, 1894, 1853, 1894, 1881, 1863, 1866, 1950, 1884, 1872, 1922, 1893, 2163, 2101, 2039, 2493, 1994, 2522, 1870, 1868, 1910, 2000, 1977, 1924, 1952, 1982, 1999, 1955, 1940, 2048, 1919, 2107, 1912, 1905, 1918, 1872, 1896, 1896, 1908, 1917, 1931, 1991, 1909, 1911, 1960, 1953, 2070, 2463, 2552, 2464, 1900, 1913, 1952, 1963, 1910, 1932, 2004, 2470, 1887, 1884, 1938, 1898, 1948, 1877, 1911, 1991, 2258, 2330, 1994, 1939, 2159, 2460, 1920, 1927, 1899, 1902, 1907, 1916, 1969, 1938, 1914, 1972, 1942, 1921, 2326, 2408],
      "WindowCenter": [756.0, 752.0, 750.0, 748.0, 748.0, 750.0, 749.0, 749.0, 750.0, 752.0, 751.0, 750.0, 751.0, 749.0, 748.0, 748.0, 749.0, 751.0, 754.0, 754.0, 765.0, 757.0, 753.0, 753.0, 751.0, 747.0, 744.0, 746.0, 747.0, 749.0, 753.0, 754.0, 754.0, 752.0, 751.0, 751.0, 748.0, 749.0, 751.0, 753.0, 754.0, 754.0, 752.0, 751.0, 750.0, 752.0, 751.0, 751.0, 754.0, 754.0, 754.0, 752.0, 751.0, 751.0, 751.0, 749.0, 748.0, 751.0, 752.0, 752.0, 756.0, 752.0, 753.0, 751.0, 745.0, 746.0, 745.0, 748.0, 750.0, 749.0, 748.0, 746.0, 746.0, 752.0, 755.0, 754.0, 750.0, 748.0, 745.0, 748.0, 746.0, 746.0, 746.0, 749.0, 751.0, 754.0, 754.0, 752.0, 751.0, 749.0, 749.0, 750.0, 751.0, 752.0, 753.0, 754.0, 752.0, 752.0, 752.0, 749.0, 750.0, 750.0, 748.0, 749.0, 750.0, 747.0, 746.0, 747.0, 750.0, 750.0, 749.0, 748.0, 749.0, 750.0, 750.0, 749.0, 750.0, 754.0, 756.0, 755.0, 753.0, 752.0, 750.0, 750.0, 750.0, 750.0, 750.0, 752.0, 753.0, 752.0, 750.0, 750.0, 750.0, 750.0, 753.0, 754.0, 760.0, 760.0, 755.0, 755.0, 751.0, 750.0, 746.0, 746.0, 747.0, 751.0, 753.0, 753.0, 751.0, 750.0, 750.0, 751.0, 751.0, 750.0, 749.0, 750.0, 749.0, 748.0, 747.0, 746.0, 746.0, 746.0, 747.0, 750.0, 751.0, 753.0, 754.0, 755.0, 756.0, 754.0, 753.0, 752.0, 750.0, 749.0, 747.0, 750.0, 752.0, 751.0, 750.0, 750.0, 751.0, 753.0, 750.0, 748.0, 750.0, 750.0, 752.0, 752.0, 752.0, 750.0, 753.0, 758.0, 754.0, 751.0, 749.0, 748.0, 744.0, 745.0, 745.0, 746.0, 747.0, 749.0, 752.0, 754.0, 754.0, 754.0, 753.0, 753.0, 754.0, 755.0],
      "WindowWidth": [1606.0, 1597.0, 1591.0, 1586.0, 1587.0, 1592.0, 1590.0, 1589.0, 1593.0, 1596.0, 1594.0, 1592.0, 1595.0, 1589.0, 1588.0, 1587.0, 1588.0, 1594.0, 1603.0, 1601.0, 1632.0, 1608.0, 1600.0, 1600.0, 1592.0, 1584.0, 1576.0, 1580.0, 1585.0, 1590.0, 1598.0, 1602.0, 1601.0, 1597.0, 1593.0, 1594.0, 1587.0, 1589.0, 1596.0, 1599.0, 1601.0, 1602.0, 1596.0, 1594.0, 1591.0, 1597.0, 1593.0, 1594.0, 1601.0, 1602.0, 1602.0, 1597.0, 1593.0, 1594.0, 1595.0, 1589.0, 1587.0, 1593.0, 1597.0, 1598.0, 1606.0, 1597.0, 1600.0, 1595.0, 1580.0, 1582.0, 1580.0, 1587.0, 1591.0, 1589.0, 1585.0, 1583.0, 1582.0, 1597.0, 1604.0, 1603.0, 1591.0, 1585.0, 1578.0, 1587.0, 1580.0, 1581.0, 1583.0, 1589.0, 1595.0, 1602.0, 1603.0, 1596.0, 1595.0, 1590.0, 1590.0, 1591.0, 1594.0, 1597.0, 1600.0, 1600.0, 1596.0, 1597.0, 1596.0, 1589.0, 1592.0, 1590.0, 1587.0, 1588.0, 1592.0, 1584.0, 1580.0, 1584.0, 1591.0, 1592.0, 1588.0, 1586.0, 1589.0, 1592.0, 1591.0, 1589.0, 1592.0, 1603.0, 1608.0, 1603.0, 1599.0, 1596.0, 1592.0, 1592.0, 1591.0, 1592.0, 1592.0, 1597.0, 1600.0, 1595.0, 1591.0, 1592.0, 1591.0, 1593.0, 1599.0, 1601.0, 1617.0, 1615.0, 1605.0, 1605.0, 1593.0, 1590.0, 1580.0, 1583.0, 1585.0, 1594.0, 1600.0, 1598.0, 1595.0, 1591.0, 1593.0, 1594.0, 1593.0, 1593.0, 1590.0, 1591.0, 1589.0, 1588.0, 1584.0, 1582.0, 1581.0, 1582.0, 1586.0, 1591.0, 1595.0, 1599.0, 1602.0, 1605.0, 1606.0, 1602.0, 1599.0, 1598.0, 1593.0, 1589.0, 1584.0, 1591.0, 1597.0, 1595.0, 1592.0, 1592.0, 1594.0, 1600.0, 1591.0, 1588.0, 1592.0, 1593.0, 1597.0, 1597.0, 1596.0, 1593.0, 1601.0, 1609.0, 1602.0, 1594.0, 1589.0, 1587.0, 1577.0, 1578.0, 1579.0, 1582.0, 1585.0, 1588.0, 1596.0, 1602.0, 1602.0, 1600.0, 1600.0, 1600.0, 1602.0, 1603.0]
    },
    "slices": {}
  }
}