{
  "AcquisitionMatrixPE": 64,
  "AcquisitionNumber": 1,
  "AcquisitionTime": "14:13:4.450000",
  "BandwidthPerPixelPhaseEncode": 30.637,
  "BaseResolution": 64,
  "BidsGuess": [
    "func",
    "_acq-epfid2_dir-AP_run-4_bold"
],
  "CoilCombinationMethod": "Sum of Squares",
  "CoilString": "C:HEA;HEP",
  "ConversionSoftware": "dcm2niix",
  "ConversionSoftwareVersion": "v1.0.20240202",
  "DerivedVendorReportedEchoSpacing": 0.000510004,
  "DeviceSerialNumber": "35119",
  "DwellTime": 3.5e-06,
  "EchoTime": 0.03,
  "EffectiveEchoSpacing": 0.000510004,
  "FlipAngle": 78,
  "HeudiconvVersion": "1.1.6",
  "ImageComments": "V",
  "ImageOrientationPatientDICOM": [0.999178, 0.025661, 0.03138, 0, 0.774114, -0.633046],
  "ImageOrientationText": "Tra>Cor(-39.3)>Sag(2.3)",
  "ImageType": [
    "ORIGINAL",
    "PRIMARY",
    "M",
    "ND",
    "MOSAIC"
],
  "ImagingFrequency": 123.251786,
  "InPlanePhaseEncodingDirectionDICOM": "COL",
  "InstitutionAddress": "Chaucer Road  15,Cambridge,UK,GB,CB2 2EF",
  "InstitutionName": "MRC-CBU",
  "MRAcquisitionType": "2D",
  "MagneticFieldStrength": 3,
  "Manufacturer": "Siemens",
  "ManufacturersModelName": "TrioTim",
  "MatrixCoilMode": "SENSE",
  "Modality": "MR",
  "NonlinearGradientCorrection": false,
  "PartialFourier": 1,
  "PatientPosition": "HFS",
  "PercentPhaseFOV": 100,
  "PercentSampling": 100,
  "PhaseEncodingDirection": "j-",
  "PhaseEncodingSteps": 64,
  "PhaseResolution": 1,
  "PixelBandwidth": 2230,
  "ProcedureStepDescription": "CBU^Neuroimaging",
  "ProtocolName": "CBU_DWEPI_BOLD210",
  "PulseSequenceDetails": "%SiemensSeq%\\ep2d_bold",
  "ReceiveCoilName": "HeadMatrix",
  "ReconMatrixPE": 64,
  "RepetitionTime": 2,
  "SAR": 0.177458,
  "ScanOptions": "FS",
  "ScanningSequence": "EP",
  "SequenceName": "*epfid2d1_64",
  "SequenceVariant": "SK",
  "SeriesDescription": "CBU_DWEPI_BOLD210",
  "SeriesNumber": 4,
  "ShimSetting": [-7754, -8791, -2016, 580, 113, 67, -86, 23],
  "SliceThickness": 3,
  "SliceTiming": [0, 1.035, 0.06, 1.095, 0.1225, 1.155, 0.1825, 1.2175, 0.2425, 1.2775, 0.305, 1.3375, 0.365, 1.4, 0.425, 1.46, 0.4875, 1.52, 0.5475, 1.5825, 0.6075, 1.6425, 0.67, 1.7025, 0.73, 1.765, 0.79, 1.825, 0.8525, 1.885, 0.9125, 1.9475, 0.9725],
  "SoftwareVersions": "syngo MR B15",
  "SpacingBetweenSlices": 3.9,
  "StationName": "MRC35119",
  "TaskName": "faceprocessing",
  "TotalReadoutTime": 0.0321303,
  "TxRefAmp": 353.369,
  "dcmmeta_affine": [
    [-2.9975340366363525, 0.0, 0.15809153020381927, 98.53073120117188],
    [-0.0769829973578453, 2.3223419189453125, -2.4668500423431396, -26.370988845825195],
    [0.09414000064134598, 1.8991379737854004, 3.0165629386901855, -84.90180206298828],
    [0.0, 0.0, 0.0, 1.0]
],
  "dcmmeta_reorient_transform": [
    [0.0, -1.0, 0.0, 63.0],
    [1.0, 0.0, 0.0, 0.0],
    [0.0, 0.0, 1.0, 0.0],
    [0.0, 0.0, 0.0, 1.0]
],
  "dcmmeta_shape": [64, 64, 33, 210],
  "dcmmeta_slice_dim": 2,
  "dcmmeta_version": 0.6,
  "global": {
    "const": {
      "AcquisitionMatrix": [64, 0, 0, 64],
      "AngioFlag": "N",
      "BitsAllocated": 16,
      "BitsStored": 12,
      "Columns": 384,
      "EchoNumbers": 1,
      "EchoTime": 30.0,
      "EchoTrainLength": 1,
      "FlipAngle": 78.0,
      "HighBit": 11,
      "ImageOrientationPatient": [0.999178, 0.025661, 0.03138, -0.0, 0.774114, -0.633046],
      "ImagePositionPatient": [-578.136169, -503.828558, 323.543572],
      "ImageType": [
        "ORIGINAL",
        "PRIMARY",
        "M",
        "ND",
        "MOSAIC"
],
      "ImagedNucleus": "1H",
      "ImagingFrequency": 123.251786,
      "InPlanePhaseEncodingDirection": "COL",
      "MRAcquisitionType": "2D",
      "MagneticFieldStrength": 3.0,
      "Manufacturer": "SIEMENS",
      "ManufacturerModelName": "TrioTim",
      "Modality": "MR",
      "NumberOfAverages": 1.0,
      "NumberOfPhaseEncodingSteps": 64,
      "PercentPhaseFieldOfView": 100.0,
      "PercentSampling": 100.0,
      "PerformedProcedureStepStartTime": "135553.812000",
      "PhotometricInterpretation": "MONOCHROME2",
      "PixelAspectRatio": [1, 1],
      "PixelBandwidth": 2230.0,
      "PixelRepresentation": 0,
      "PixelSpacing": [3.0, 3.0],
      "ProtocolName": "CBU_DWEPI_BOLD210",
      "RepetitionTime": 2000.0,
      "Rows": 384,
      "SAR": 0.177458,
      "SamplesPerPixel": 1,
      "ScanOptions": "FS",
      "ScanningSequence": "EP",
      "SequenceName": "*epfid2d1_64",
      "SequenceVariant": "SK",
      "SeriesDescription": "CBU_DWEPI_BOLD210",
      "SeriesNumber": 4,
      "SeriesTime": "141308.562000",
      "SliceLocation": -44.994972,
      "SliceThickness": 3.0,
      "SmallestImagePixelValue": 0,
      "SoftwareVersions": "syngo MR B15",
      "SpacingBetweenSlices": 3.9,
      "SpecificCharacterSet": "ISO_IR 100",
      "StudyID": "1",
      "StudyTime": "135553.640000",
      "TransmitCoilName": "Body",
      "VariableFlipAngleFlag": "N",
      "WindowCenterWidthExplanation": "Algo1",
      "dBdt": 0.0},
    "slices": {}
  },
  "time": {
    "samples": {
      "AcquisitionNumber": [1, 2, 3, 4, 5, 6, 7, 8, 9, 10, 11, 12, 13, 14, 15, 16, 17, 18, 19, 20, 21, 22, 23, 24, 25, 26, 27, 28, 29, 30, 31, 32, 33, 34, 35, 36, 37, 38, 39, 40, 41, 42, 43, 44, 45, 46, 47, 48, 49, 50, 51, 52, 53, 54, 55, 56, 57, 58, 59, 60, 61, 62, 63, 64, 65, 66, 67, 68, 69, 70, 71, 72, 73, 74, 75, 76, 77, 78, 79, 80, 81, 82, 83, 84, 85, 86, 87, 88, 89, 90, 91, 92, 93, 94, 95, 96, 97, 98, 99, 100, 101, 102, 103, 104, 105, 106, 107, 108, 109, 110, 111, 112, 113, 114, 115, 116, 117, 118, 119, 120, 121, 122, 123, 124, 125, 126, 127, 128, 129, 130, 131, 132, 133, 134, 135, 136, 137, 138, 139, 140, 141, 142, 143, 144, 145, 146, 147, 148, 149, 150, 151, 152, 153, 154, 155, 156, 157, 158, 159, 160, 161, 162, 163, 164, 165, 166, 167, 168, 169, 170, 171, 172, 173, 174, 175, 176, 177, 178, 179, 180, 181, 182, 183, 184, 185, 186, 187, 188, 189, 190, 191, 192, 193, 194, 195, 196, 197, 198, 199, 200, 201, 202, 203, 204, 205, 206, 207, 208, 209, 210],
      "AcquisitionTime": ["141304.450000", "141306.457500", "141308.465000", "141310.472500", "141312.482500", "141314.490000", "141316.497500", "141318.505000", "141320.515000", "141322.522500", "141324.530000", "141326.537500", "141328.545000", "141330.555000", "141332.562500", "141334.570000", "141336.577500", "141338.585000", "141340.595000", "141342.602500", "141344.610000", "141346.617500", "141348.627500", "141350.635000", "141352.642500", "141354.650000", "141356.657500", "141358.667500", "141400.675000", "141402.682500", "141404.690000", "141406.697500", "141408.707500", "141410.715000", "141412.722500", "141414.730000", "141416.740000", "141418.747500", "141420.755000", "141422.762500", "141424.770000", "141426.780000", "141428.787500", "141430.795000", "141432.802500", "141434.810000", "141436.820000", "141438.827500", "141440.835000", "141442.842500", "141444.850000", "141446.860000", "141448.867500", "141450.875000", "141452.882500", "141454.892500", "141456.900000", "141458.907500", "141500.915000", "141502.922500", "141504.932500", "141506.940000", "141508.947500", "141510.955000", "141512.962500", "141514.972500", "141516.980000", "141518.987500", "141520.995000", "141523.005000", "141525.012500", "141527.020000", "141529.027500", "141531.035000", "141533.045000", "141535.052500", "141537.060000", "141539.067500", "141541.075000", "141543.085000", "141545.092500", "141547.100000", "141549.107500", "141551.117500", "141553.125000", "141555.132500", "141557.140000", "141559.147500", "141601.157500", "141603.165000", "141605.172500", "141607.180000", "141609.187500", "141611.197500", "141613.205000", "141615.212500", "141617.220000", "141619.227500", "141621.237500", "141623.245000", "141625.252500", "141627.260000", "141629.270000", "141631.277500", "141633.285000", "141635.292500", "141637.300000", "141639.310000", "141641.317500", "141643.325000", "141645.332500", "141647.340000", "141649.350000", "141651.357500", "141653.365000", "141655.372500", "141657.382500", "141659.390000", "141701.397500", "141703.405000", "141705.412500", "141707.422500", "141709.430000", "141711.437500", "141713.445000", "141715.452500", "141717.462500", "141719.470000", "141721.477500", "141723.485000", "141725.495000", "141727.502500", "141729.510000", "141731.517500", "141733.525000", "141735.535000", "141737.542500", "141739.550000", "141741.557500", "141743.565000", "141745.575000", "141747.582500", "141749.590000", "141751.597500", "141753.605000", "141755.615000", "141757.622500", "141759.630000", "141801.637500", "141803.647500", "141805.655000", "141807.662500", "141809.670000", "141811.677500", "141813.687500", "141815.695000", "141817.702500", "141819.710000", "141821.717500", "141823.727500", "141825.735000", "141827.742500", "141829.750000", "141831.760000", "141833.767500", "141835.775000", "141837.782500", "141839.790000", "141841.800000", "141843.807500", "141845.815000", "141847.822500", "141849.830000", "141851.840000", "141853.847500", "141855.855000", "141857.862500", "141859.872500", "141901.880000", "141903.887500", "141905.895000", "141907.902500", "141909.912500", "141911.920000", "141913.927500", "141915.935000", "141917.942500", "141919.952500", "141921.960000", "141923.967500", "141925.975000", "141927.985000", "141929.992500", "141932.000000", "141934.007500", "141936.015000", "141938.025000", "141940.032500", "141942.040000", "141944.047500", "141946.055000", "141948.065000", "141950.072500", "141952.080000", "141954.087500", "141956.095000", "141958.105000", "142000.112500", "142002.120000", "142004.127500"],
      "ContentTime": ["141308.578000", "141310.562000", "141312.562000", "141314.562000", "141316.562000", "141318.562000", "141320.562000", "141322.562000", "141324.562000", "141326.562000", "141328.562000", "141330.562000", "141332.562000", "141334.562000", "141336.562000", "141338.562000", "141340.562000", "141342.562000", "141344.562000", "141346.562000", "141348.562000", "141350.562000", "141352.562000", "141354.562000", "141356.562000", "141358.562000", "141400.562000", "141402.562000", "141404.562000", "141406.562000", "141408.562000", "141410.562000", "141412.562000", "141414.562000", "141416.562000", "141418.562000", "141420.562000", "141422.562000", "141424.562000", "141426.562000", "141428.562000", "141430.562000", "141432.562000", "141434.562000", "141436.562000", "141438.562000", "141440.562000", "141442.562000", "141444.562000", "141446.562000", "141448.562000", "141450.562000", "141452.562000", "141454.562000", "141456.562000", "141458.562000", "141500.562000", "141502.562000", "141504.562000", "141506.562000", "141508.562000", "141510.562000", "141512.562000", "141514.562000", "141516.562000", "141518.562000", "141520.562000", "141522.562000", "141524.562000", "141526.562000", "141528.562000", "141530.562000", "141532.562000", "141534.562000", "141536.562000", "141538.562000", "141540.562000", "141542.562000", "141544.562000", "141546.562000", "141548.562000", "141550.562000", "141552.562000", "141554.562000", "141556.562000", "141558.562000", "141600.562000", "141602.562000", "141604.562000", "141606.562000", "141608.562000", "141610.562000", "141612.562000", "141614.562000", "141616.562000", "141618.562000", "141620.562000", "141622.562000", "141624.562000", "141626.562000", "141628.562000", "141630.562000", "141632.562000", "141634.562000", "141636.562000", "141638.562000", "141640.562000", "141642.562000", "141644.562000", "141646.562000", "141648.562000", "141650.562000", "141652.562000", "141654.562000", "141656.562000", "141658.562000", "141700.562000", "141702.562000", "141704.562000", "141706.562000", "141708.562000", "141710.562000", "141712.562000", "141714.562000", "141716.562000", "141718.562000", "141720.562000", "141722.562000", "141724.562000", "141726.562000", "141728.562000", "141730.562000", "141732.562000", "141734.562000", "141736.562000", "141738.562000", "141740.562000", "141742.562000", "141744.562000", "141746.562000", "141748.562000", "141750.562000", "141752.562000", "141754.562000", "141756.562000", "141758.562000", "141800.562000", "141802.562000", "141804.562000", "141806.562000", "141808.562000", "141810.562000", "141812.562000", "141814.562000", "141816.562000", "141818.562000", "141820.562000", "141822.562000", "141824.562000", "141826.562000", "141828.562000", "141830.562000", "141832.562000", "141834.562000", "141836.562000", "141838.562000", "141840.562000", "141842.562000", "141844.562000", "141846.562000", "141848.562000", "141850.562000", "141852.562000", "141854.562000", "141856.562000", "141858.562000", "141900.562000", "141902.562000", "141904.562000", "141906.562000", "141908.562000", "141910.562000", "141912.562000", "141914.562000", "141916.562000", "141918.562000", "141920.562000", "141922.562000", "141924.562000", "141926.562000", "141928.562000", "141930.562000", "141932.562000", "141934.562000", "141936.562000", "141938.562000", "141940.562000", "141942.562000", "141944.562000", "141946.562000", "141948.562000", "141950.562000", "141952.562000", "141954.562000", "141956.562000", "141958.562000", "142000.562000", "142002.562000", "142004.562000", "142006.203000"],
      "InstanceCreationTime": ["141308.578000", "141310.562000", "141312.562000", "141314.562000", "141316.562000", "141318.562000", "141320.562000", "141322.562000", "141324.562000", "141326.562000", "141328.562000", "141330.562000", "141332.562000", "141334.562000", "141336.562000", "141338.562000", "141340.562000", "141342.562000", "141344.562000", "141346.562000", "141348.562000", "141350.562000", "141352.562000", "141354.562000", "141356.562000", "141358.562000", "141400.562000", "141402.562000", "141404.562000", "141406.562000", "141408.562000", "141410.562000", "141412.562000", "141414.562000", "141416.562000", "141418.562000", "141420.562000", "141422.562000", "141424.562000", "141426.562000", "141428.562000", "141430.562000", "141432.562000", "141434.562000", "141436.562000", "141438.562000", "141440.562000", "141442.562000", "141444.562000", "141446.562000", "141448.562000", "141450.562000", "141452.562000", "141454.562000", "141456.562000", "141458.562000", "141500.562000", "141502.562000", "141504.562000", "141506.562000", "141508.562000", "141510.562000", "141512.562000", "141514.562000", "141516.562000", "141518.562000", "141520.562000", "141522.562000", "141524.562000", "141526.562000", "141528.562000", "141530.562000", "141532.562000", "141534.562000", "141536.562000", "141538.562000", "141540.562000", "141542.562000", "141544.562000", "141546.562000", "141548.562000", "141550.562000", "141552.562000", "141554.562000", "141556.562000", "141558.562000", "141600.562000", "141602.562000", "141604.562000", "141606.562000", "141608.562000", "141610.562000", "141612.562000", "141614.562000", "141616.562000", "141618.562000", "141620.562000", "141622.562000", "141624.562000", "141626.562000", "141628.562000", "141630.562000", "141632.562000", "141634.562000", "141636.562000", "141638.562000", "141640.562000", "141642.562000", "141644.562000", "141646.562000", "141648.562000", "141650.562000", "141652.562000", "141654.562000", "141656.562000", "141658.562000", "141700.562000", "141702.562000", "141704.562000", "141706.562000", "141708.562000", "141710.562000", "141712.562000", "141714.562000", "141716.562000", "141718.562000", "141720.562000", "141722.562000", "141724.562000", "141726.562000", "141728.562000", "141730.562000", "141732.562000", "141734.562000", "141736.562000", "141738.562000", "141740.562000", "141742.562000", "141744.562000", "141746.562000", "141748.562000", "141750.562000", "141752.562000", "141754.562000", "141756.562000", "141758.562000", "141800.562000", "141802.562000", "141804.562000", "141806.562000", "141808.562000", "141810.562000", "141812.562000", "141814.562000", "141816.562000", "141818.562000", "141820.562000", "141822.562000", "141824.562000", "141826.562000", "141828.562000", "141830.562000", "141832.562000", "141834.562000", "141836.562000", "141838.562000", "141840.562000", "141842.562000", "141844.562000", "141846.562000", "141848.562000", "141850.562000", "141852.562000", "141854.562000", "141856.562000", "141858.562000", "141900.562000", "141902.562000", "141904.562000", "141906.562000", "141908.562000", "141910.562000", "141912.562000", "141914.562000", "141916.562000", "141918.562000", "141920.562000", "141922.562000", "141924.562000", "141926.562000", "141928.562000", "141930.562000", "141932.562000", "141934.562000", "141936.562000", "141938.562000", "141940.562000", "141942.562000", "141944.562000", "141946.562000", "141948.562000", "141950.562000", "141952.562000", "141954.562000", "141956.562000", "141958.562000", "142000.562000", "142002.562000", "142004.562000", "142006.203000"],
      "InstanceNumber": [1, 2, 3, 4, 5, 6, 7, 8, 9, 10, 11, 12, 13, 14, 15, 16, 17, 18, 19, 20, 21, 22, 23, 24, 25, 26, 27, 28, 29, 30, 31, 32, 33, 34, 35, 36, 37, 38, 39, 40, 41, 42, 43, 44, 45, 46, 47, 48, 49, 50, 51, 52, 53, 54, 55, 56, 57, 58, 59, 60, 61, 62, 63, 64, 65, 66, 67, 68, 69, 70, 71, 72, 73, 74, 75, 76, 77, 78, 79, 80, 81, 82, 83, 84, 85, 86, 87, 88, 89, 90, 91, 92, 93, 94, 95, 96, 97, 98, 99, 100, 101, 102, 103, 104, 105, 106, 107, 108, 109, 110, 111, 112, 113, 114, 115, 116, 117, 118, 119, 120, 121, 122, 123, 124, 125, 126, 127, 128, 129, 130, 131, 132, 133, 134, 135, 136, 137, 138, 139, 140, 141, 142, 143, 144, 145, 146, 147, 148, 149, 150, 151, 152, 153, 154, 155, 156, 157, 158, 159, 160, 161, 162, 163, 164, 165, 166, 167, 168, 169, 170, 171, 172, 173, 174, 175, 176, 177, 178, 179, 180, 181, 182, 183, 184, 185, 186, 187, 188, 189, 190, 191, 192, 193, 194, 195, 196, 197, 198, 199, 200, 201, 202, 203, 204, 205, 206, 207, 208, 209, 210],
      "LargestImagePixelValue": [2209, 2120, 2080, 2059, 2064, 2090, 2046, 2077, 2060, 2098, 2074, 2085, 2083, 2067, 2091, 2060, 2059, 2058, 2038, 2045, 2053, 2050, 2050, 2065, 2057, 2059, 2042, 2054, 2058, 2063, 2049, 2032, 2043, 2026, 2050, 2039, 2079, 2032, 2045, 2033, 2048, 2048, 2057, 2069, 2074, 2070, 2069, 2090, 2089, 2072, 2068, 2071, 2074, 2080, 2067, 2056, 2079, 2064, 2036, 2039, 2029, 2192, 2007, 2001, 2005, 2023, 2036, 2072, 2068, 2046, 2097, 2072, 2057, 2072, 2065, 2097, 2078, 2033, 2093, 2057, 2065, 2060, 2036, 2167, 2034, 2011, 2029, 2041, 2039, 2100, 2075, 2056, 2062, 2067, 2056, 2086, 2054, 2042, 2048, 2054, 2040, 2048, 2061, 2067, 2075, 2047, 2237, 2051, 2046, 2073, 2058, 2082, 2056, 2070, 2074, 2035, 2269, 2058, 2173, 2075, 2075, 2049, 2042, 2230, 2176, 2025, 1996, 1997, 2019, 2018, 2098, 2057, 2024, 2000, 1986, 1988, 2011, 2018, 2013, 2013, 2018, 2037, 2042, 2042, 2042, 2060, 2029, 2052, 2127, 2105, 2099, 2090, 2203, 2149, 2223, 2072, 2075, 2153, 2162, 2301, 2072, 2065, 2079, 2089, 2083, 2078, 2077, 2076, 2108, 2096, 2098, 2097, 2110, 2099, 2109, 2114, 2129, 2112, 2088, 2092, 2072, 2119, 2085, 2062, 2036, 2014, 2282, 2034, 2064, 2085, 2075, 2067, 2038, 2061, 2050, 2053, 2073, 2074, 2091, 2101, 2089, 2077, 2054, 2045, 2048, 2050, 2052, 2055, 2048, 2049],
      "WindowCenter": [754.0, 752.0, 751.0, 750.0, 751.0, 753.0, 752.0, 751.0, 752.0, 753.0, 754.0, 754.0, 755.0, 753.0, 752.0, 751.0, 751.0, 751.0, 751.0, 752.0, 753.0, 752.0, 751.0, 752.0, 753.0, 753.0, 751.0, 750.0, 750.0, 750.0, 749.0, 749.0, 749.0, 750.0, 752.0, 751.0, 750.0, 749.0, 750.0, 751.0, 751.0, 750.0, 750.0, 751.0, 753.0, 753.0, 752.0, 753.0, 753.0, 753.0, 753.0, 754.0, 755.0, 756.0, 756.0, 755.0, 753.0, 752.0, 751.0, 752.0, 751.0, 750.0, 748.0, 747.0, 747.0, 748.0, 750.0, 753.0, 753.0, 753.0, 753.0, 752.0, 751.0, 751.0, 754.0, 755.0, 755.0, 753.0, 753.0, 754.0, 756.0, 755.0, 752.0, 751.0, 749.0, 748.0, 748.0, 749.0, 750.0, 753.0, 754.0, 752.0, 753.0, 753.0, 754.0, 755.0, 755.0, 753.0, 753.0, 753.0, 752.0, 752.0, 755.0, 755.0, 754.0, 752.0, 752.0, 751.0, 752.0, 754.0, 755.0, 756.0, 755.0, 754.0, 752.0, 751.0, 752.0, 752.0, 754.0, 756.0, 756.0, 755.0, 754.0, 752.0, 751.0, 749.0, 749.0, 749.0, 750.0, 751.0, 752.0, 754.0, 753.0, 750.0, 749.0, 750.0, 751.0, 752.0, 752.0, 754.0, 754.0, 755.0, 755.0, 754.0, 755.0, 755.0, 755.0, 756.0, 757.0, 758.0, 759.0, 757.0, 755.0, 753.0, 753.0, 751.0, 750.0, 750.0, 749.0, 749.0, 748.0, 748.0, 749.0, 750.0, 750.0, 751.0, 750.0, 751.0, 752.0, 753.0, 753.0, 753.0, 754.0, 754.0, 756.0, 757.0, 759.0, 758.0, 756.0, 755.0, 755.0, 756.0, 757.0, 755.0, 753.0, 751.0, 753.0, 751.0, 753.0, 755.0, 754.0, 753.0, 752.0, 752.0, 753.0, 753.0, 753.0, 753.0, 755.0, 756.0, 755.0, 754.0, 753.0, 751.0, 751.0, 753.0, 753.0, 753.0, 754.0, 755.0],
      "WindowWidth": [1604.0, 1597.0, 1593.0, 1591.0, 1594.0, 1599.0, 1596.0, 1595.0, 1596.0, 1599.0, 1601.0, 1602.0, 1604.0, 1600.0, 1596.0, 1594.0, 1594.0, 1595.0, 1595.0, 1598.0, 1598.0, 1596.0, 1595.0, 1597.0, 1600.0, 1599.0, 1595.0, 1592.0, 1591.0, 1591.0, 1590.0, 1590.0, 1589.0, 1592.0, 1597.0, 1593.0, 1592.0, 1590.0, 1591.0, 1595.0, 1594.0, 1593.0, 1592.0, 1595.0, 1600.0, 1599.0, 1597.0, 1598.0, 1599.0, 1600.0, 1600.0, 1602.0, 1604.0, 1607.0, 1607.0, 1604.0, 1600.0, 1597.0, 1595.0, 1595.0, 1594.0, 1592.0, 1586.0, 1584.0, 1585.0, 1587.0, 1593.0, 1600.0, 1600.0, 1599.0, 1599.0, 1598.0, 1595.0, 1596.0, 1601.0, 1606.0, 1603.0, 1599.0, 1600.0, 1602.0, 1607.0, 1604.0, 1597.0, 1593.0, 1588.0, 1586.0, 1586.0, 1588.0, 1593.0, 1601.0, 1601.0, 1598.0, 1598.0, 1599.0, 1602.0, 1606.0, 1604.0, 1599.0, 1599.0, 1599.0, 1597.0, 1598.0, 1604.0, 1605.0, 1600.0, 1596.0, 1598.0, 1595.0, 1598.0, 1601.0, 1604.0, 1607.0, 1605.0, 1601.0, 1597.0, 1595.0, 1597.0, 1597.0, 1604.0, 1608.0, 1607.0, 1606.0, 1601.0, 1598.0, 1593.0, 1590.0, 1589.0, 1589.0, 1591.0, 1594.0, 1598.0, 1602.0, 1600.0, 1592.0, 1590.0, 1592.0, 1596.0, 1598.0, 1598.0, 1601.0, 1603.0, 1605.0, 1605.0, 1603.0, 1604.0, 1606.0, 1606.0, 1608.0, 1611.0, 1614.0, 1615.0, 1609.0, 1605.0, 1599.0, 1598.0, 1594.0, 1592.0, 1592.0, 1589.0, 1588.0, 1586.0, 1588.0, 1590.0, 1591.0, 1592.0, 1593.0, 1592.0, 1593.0, 1598.0, 1598.0, 1598.0, 1599.0, 1601.0, 1603.0, 1606.0, 1611.0, 1615.0, 1612.0, 1605.0, 1603.0, 1603.0, 1608.0, 1609.0, 1605.0, 1599.0, 1594.0, 1598.0, 1595.0, 1600.0, 1604.0, 1602.0, 1600.0, 1596.0, 1596.0, 1600.0, 1600.0, 1599.0, 1600.0, 1604.0, 1608.0, 1605.0, 1602.0, 1598.0, 1595.0, 1594.0, 1598.0, 1600.0, 1600.0, 1601.0, 1604.0]
    },
    "slices": {}
  }
}