{
  "AcquisitionMatrixPE": 64,
  "AcquisitionNumber": 1,
  "AcquisitionTime": "10:49:57.140000",
  "BandwidthPerPixelPhaseEncode": 30.637,
  "BaseResolution": 64,
  "BidsGuess": [
    "func",
    "_acq-epfid2_dir-AP_run-11_bold"
],
  "CoilCombinationMethod": "Sum of Squares",
  "CoilString": "C:HEA;HEP",
  "ConversionSoftware": "dcm2niix",
  "ConversionSoftwareVersion": "v1.0.20240202",
  "DerivedVendorReportedEchoSpacing": 0.000510004,
  "DeviceSerialNumber": "35119",
  "DwellTime": 3.5e-06,
  "EchoTime": 0.03,
  "EffectiveEchoSpacing": 0.000510004,
  "FlipAngle": 78,
  "HeudiconvVersion": "1.1.6",
  "ImageComments": "V",
  "ImageOrientationPatientDICOM": [0.998299, 0.013034, 0.056827, 0, 0.974691, -0.223556],
  "ImageOrientationText": "Tra>Cor(-12.9)>Sag(3.3)",
  "ImageType": [
    "ORIGINAL",
    "PRIMARY",
    "M",
    "ND",
    "MOSAIC"
],
  "ImagingFrequency": 123.251949,
  "InPlanePhaseEncodingDirectionDICOM": "COL",
  "InstitutionAddress": "Chaucer Road  15,Cambridge,UK,GB,CB2 2EF",
  "InstitutionName": "MRC-CBU",
  "MRAcquisitionType": "2D",
  "MagneticFieldStrength": 3,
  "Manufacturer": "Siemens",
  "ManufacturersModelName": "TrioTim",
  "MatrixCoilMode": "SENSE",
  "Modality": "MR",
  "NonlinearGradientCorrection": false,
  "PartialFourier": 1,
  "PatientPosition": "HFS",
  "PercentPhaseFOV": 100,
  "PercentSampling": 100,
  "PhaseEncodingDirection": "j-",
  "PhaseEncodingSteps": 64,
  "PhaseResolution": 1,
  "PixelBandwidth": 2230,
  "ProcedureStepDescription": "CBU^Neuroimaging",
  "ProtocolName": "CBU_DWEPI_BOLD210",
  "PulseSequenceDetails": "%SiemensSeq%\\ep2d_bold",
  "ReceiveCoilName": "HeadMatrix",
  "ReconMatrixPE": 64,
  "RepetitionTime": 2,
  "SAR": 0.122885,
  "ScanOptions": "FS",
  "ScanningSequence": "EP",
  "SequenceName": "*epfid2d1_64",
  "SequenceVariant": "SK",
  "SeriesDescription": "CBU_DWEPI_BOLD210",
  "SeriesNumber": 11,
  "ShimSetting": [-7762, -8717, -2302, 927, 347, 526, 435, -106],
  "SliceThickness": 3,
  "SliceTiming": [0, 1.0325, 0.06, 1.095, 0.12, 1.155, 0.1825, 1.215, 0.2425, 1.2775, 0.3025, 1.3375, 0.365, 1.3975, 0.425, 1.46, 0.485, 1.52, 0.5475, 1.58, 0.6075, 1.6425, 0.6675, 1.7025, 0.73, 1.7625, 0.79, 1.825, 0.85, 1.885, 0.9125, 1.945, 0.9725],
  "SoftwareVersions": "syngo MR B15",
  "SpacingBetweenSlices": 3.9,
  "StationName": "MRC35119",
  "TaskName": "faceprocessing",
  "TotalReadoutTime": 0.0321303,
  "TxRefAmp": 318.558,
  "dcmmeta_affine": [
    [-2.99489688873291, 0.0, 0.22738011181354523, 96.9637222290039],
    [-0.03910199925303459, 2.9240729808807373, -0.8703853487968445, -67.60459899902344],
    [0.17048099637031555, 0.6706680059432983, 3.7948288917541504, -64.70323944091797],
    [0.0, 0.0, 0.0, 1.0]
],
  "dcmmeta_reorient_transform": [
    [0.0, -1.0, 0.0, 63.0],
    [1.0, 0.0, 0.0, 0.0],
    [0.0, 0.0, 1.0, 0.0],
    [0.0, 0.0, 0.0, 1.0]
],
  "dcmmeta_shape": [64, 64, 33, 210],
  "dcmmeta_slice_dim": 2,
  "dcmmeta_version": 0.6,
  "global": {
    "const": {
      "AcquisitionMatrix": [64, 0, 0, 64],
      "AngioFlag": "N",
      "BitsAllocated": 16,
      "BitsStored": 12,
      "Columns": 384,
      "EchoNumbers": 1,
      "EchoTime": 30.0,
      "EchoTrainLength": 1,
      "FlipAngle": 78.0,
      "HighBit": 11,
      "ImageOrientationPatient": [0.998299, 0.013034, 0.056827, 0.0, 0.974691, -0.223556],
      "ImagePositionPatient": [-576.147246, -590.719998, 57.578768],
      "ImageType": [
        "ORIGINAL",
        "PRIMARY",
        "M",
        "ND",
        "MOSAIC"
],
      "ImagedNucleus": "1H",
      "ImagingFrequency": 123.251949,
      "InPlanePhaseEncodingDirection": "COL",
      "MRAcquisitionType": "2D",
      "MagneticFieldStrength": 3.0,
      "Manufacturer": "SIEMENS",
      "ManufacturerModelName": "TrioTim",
      "Modality": "MR",
      "NumberOfAverages": 1.0,
      "NumberOfPhaseEncodingSteps": 64,
      "PercentPhaseFieldOfView": 100.0,
      "PercentSampling": 100.0,
      "PerformedProcedureStepStartTime": "093853.812000",
      "PhotometricInterpretation": "MONOCHROME2",
      "PixelAspectRatio": [1, 1],
      "PixelBandwidth": 2230.0,
      "PixelRepresentation": 0,
      "PixelSpacing": [3.0, 3.0],
      "ProtocolName": "CBU_DWEPI_BOLD210",
      "RepetitionTime": 2000.0,
      "Rows": 384,
      "SAR": 0.122885,
      "SamplesPerPixel": 1,
      "ScanOptions": "FS",
      "ScanningSequence": "EP",
      "SequenceName": "*epfid2d1_64",
      "SequenceVariant": "SK",
      "SeriesDescription": "CBU_DWEPI_BOLD210",
      "SeriesNumber": 11,
      "SeriesTime": "105000.890000",
      "SliceLocation": -42.217141,
      "SliceThickness": 3.0,
      "SmallestImagePixelValue": 0,
      "SoftwareVersions": "syngo MR B15",
      "SpacingBetweenSlices": 3.9,
      "SpecificCharacterSet": "ISO_IR 100",
      "StudyID": "1",
      "StudyTime": "093853.750000",
      "TransmitCoilName": "Body",
      "VariableFlipAngleFlag": "N",
      "WindowCenterWidthExplanation": "Algo1",
      "dBdt": 0.0},
    "slices": {}
  },
  "time": {
    "samples": {
      "AcquisitionNumber": [1, 2, 3, 4, 5, 6, 7, 8, 9, 10, 11, 12, 13, 14, 15, 16, 17, 18, 19, 20, 21, 22, 23, 24, 25, 26, 27, 28, 29, 30, 31, 32, 33, 34, 35, 36, 37, 38, 39, 40, 41, 42, 43, 44, 45, 46, 47, 48, 49, 50, 51, 52, 53, 54, 55, 56, 57, 58, 59, 60, 61, 62, 63, 64, 65, 66, 67, 68, 69, 70, 71, 72, 73, 74, 75, 76, 77, 78, 79, 80, 81, 82, 83, 84, 85, 86, 87, 88, 89, 90, 91, 92, 93, 94, 95, 96, 97, 98, 99, 100, 101, 102, 103, 104, 105, 106, 107, 108, 109, 110, 111, 112, 113, 114, 115, 116, 117, 118, 119, 120, 121, 122, 123, 124, 125, 126, 127, 128, 129, 130, 131, 132, 133, 134, 135, 136, 137, 138, 139, 140, 141, 142, 143, 144, 145, 146, 147, 148, 149, 150, 151, 152, 153, 154, 155, 156, 157, 158, 159, 160, 161, 162, 163, 164, 165, 166, 167, 168, 169, 170, 171, 172, 173, 174, 175, 176, 177, 178, 179, 180, 181, 182, 183, 184, 185, 186, 187, 188, 189, 190, 191, 192, 193, 194, 195, 196, 197, 198, 199, 200, 201, 202, 203, 204, 205, 206, 207, 208, 209, 210],
      "AcquisitionTime": ["104957.140000", "104959.147500", "105001.155000", "105003.162500", "105005.170000", "105007.180000", "105009.187500", "105011.195000", "105013.202500", "105015.210000", "105017.220000", "105019.227500", "105021.235000", "105023.242500", "105025.250000", "105027.260000", "105029.267500", "105031.275000", "105033.282500", "105035.292500", "105037.300000", "105039.307500", "105041.315000", "105043.322500", "105045.332500", "105047.340000", "105049.347500", "105051.355000", "105053.362500", "105055.372500", "105057.380000", "105059.387500", "105101.395000", "105103.405000", "105105.412500", "105107.420000", "105109.427500", "105111.435000", "105113.445000", "105115.452500", "105117.460000", "105119.467500", "105121.475000", "105123.485000", "105125.492500", "105127.500000", "105129.507500", "105131.517500", "105133.525000", "105135.532500", "105137.540000", "105139.547500", "105141.557500", "105143.565000", "105145.572500", "105147.580000", "105149.587500", "105151.597500", "105153.605000", "105155.612500", "105157.620000", "105159.627500", "105201.637500", "105203.645000", "105205.652500", "105207.660000", "105209.670000", "105211.677500", "105213.685000", "105215.692500", "105217.700000", "105219.710000", "105221.717500", "105223.725000", "105225.732500", "105227.740000", "105229.750000", "105231.757500", "105233.765000", "105235.772500", "105237.782500", "105239.790000", "105241.797500", "105243.805000", "105245.812500", "105247.822500", "105249.830000", "105251.837500", "105253.845000", "105255.852500", "105257.862500", "105259.870000", "105301.877500", "105303.885000", "105305.895000", "105307.902500", "105309.910000", "105311.917500", "105313.925000", "105315.935000", "105317.942500", "105319.950000", "105321.957500", "105323.965000", "105325.975000", "105327.982500", "105329.990000", "105331.997500", "105334.005000", "105336.015000", "105338.022500", "105340.030000", "105342.037500", "105344.047500", "105346.055000", "105348.062500", "105350.070000", "105352.077500", "105354.087500", "105356.095000", "105358.102500", "105400.110000", "105402.117500", "105404.127500", "105406.135000", "105408.142500", "105410.150000", "105412.160000", "105414.167500", "105416.175000", "105418.182500", "105420.190000", "105422.200000", "105424.207500", "105426.215000", "105428.222500", "105430.230000", "105432.240000", "105434.247500", "105436.255000", "105438.262500", "105440.272500", "105442.280000", "105444.287500", "105446.295000", "105448.302500", "105450.312500", "105452.320000", "105454.327500", "105456.335000", "105458.342500", "105500.352500", "105502.360000", "105504.367500", "105506.375000", "105508.382500", "105510.392500", "105512.400000", "105514.407500", "105516.415000", "105518.425000", "105520.432500", "105522.440000", "105524.447500", "105526.455000", "105528.465000", "105530.472500", "105532.480000", "105534.487500", "105536.495000", "105538.505000", "105540.512500", "105542.520000", "105544.527500", "105546.537500", "105548.545000", "105550.552500", "105552.560000", "105554.567500", "105556.577500", "105558.585000", "105600.592500", "105602.600000", "105604.607500", "105606.617500", "105608.625000", "105610.632500", "105612.640000", "105614.650000", "105616.657500", "105618.665000", "105620.672500", "105622.680000", "105624.690000", "105626.697500", "105628.705000", "105630.712500", "105632.720000", "105634.730000", "105636.737500", "105638.745000", "105640.752500", "105642.762500", "105644.770000", "105646.777500", "105648.785000", "105650.792500", "105652.802500", "105654.810000", "105656.817500"],
      "ContentTime": ["105000.906000", "105002.390000", "105004.390000", "105006.390000", "105008.390000", "105010.390000", "105012.390000", "105014.390000", "105016.390000", "105018.390000", "105020.390000", "105022.390000", "105024.390000", "105026.390000", "105028.390000", "105030.390000", "105032.390000", "105034.390000", "105036.390000", "105038.390000", "105040.390000", "105042.390000", "105044.390000", "105046.390000", "105048.390000", "105050.390000", "105052.390000", "105054.390000", "105056.390000", "105058.390000", "105100.390000", "105102.390000", "105104.390000", "105106.390000", "105108.390000", "105110.390000", "105112.390000", "105114.390000", "105116.390000", "105118.390000", "105120.390000", "105122.390000", "105124.390000", "105126.390000", "105128.390000", "105130.390000", "105132.390000", "105134.390000", "105136.390000", "105138.890000", "105140.390000", "105142.390000", "105144.390000", "105146.390000", "105148.390000", "105150.390000", "105152.390000", "105154.390000", "105156.890000", "105158.390000", "105200.390000", "105202.390000", "105204.390000", "105206.390000", "105208.390000", "105210.390000", "105212.390000", "105214.390000", "105216.390000", "105218.390000", "105220.390000", "105222.390000", "105224.390000", "105226.390000", "105228.390000", "105230.390000", "105232.390000", "105234.390000", "105236.390000", "105238.390000", "105240.390000", "105242.390000", "105244.390000", "105246.390000", "105248.390000", "105250.390000", "105252.390000", "105254.390000", "105256.390000", "105258.390000", "105300.390000", "105302.390000", "105304.390000", "105306.390000", "105308.390000", "105310.390000", "105312.390000", "105314.390000", "105316.390000", "105318.390000", "105320.390000", "105322.390000", "105324.390000", "105326.390000", "105328.390000", "105330.390000", "105332.390000", "105334.390000", "105336.390000", "105338.390000", "105340.390000", "105342.390000", "105344.390000", "105346.390000", "105348.390000", "105350.390000", "105352.390000", "105354.390000", "105356.390000", "105358.390000", "105400.390000", "105402.390000", "105404.390000", "105406.390000", "105408.390000", "105410.390000", "105412.390000", "105414.390000", "105416.390000", "105418.390000", "105420.390000", "105422.390000", "105424.390000", "105426.390000", "105428.390000", "105430.390000", "105432.390000", "105434.390000", "105436.390000", "105438.390000", "105440.390000", "105442.390000", "105444.390000", "105446.390000", "105448.390000", "105450.390000", "105452.390000", "105454.390000", "105456.390000", "105458.390000", "105500.390000", "105502.390000", "105504.390000", "105506.390000", "105508.390000", "105510.390000", "105512.390000", "105514.390000", "105516.390000", "105518.390000", "105520.390000", "105522.390000", "105524.390000", "105526.390000", "105528.390000", "105530.390000", "105532.390000", "105534.390000", "105536.390000", "105538.390000", "105540.390000", "105542.390000", "105544.390000", "105546.390000", "105548.390000", "105550.390000", "105552.390000", "105554.390000", "105556.390000", "105558.390000", "105600.390000", "105602.390000", "105604.390000", "105606.390000", "105608.390000", "105610.390000", "105612.390000", "105614.390000", "105616.390000", "105618.390000", "105620.390000", "105622.390000", "105624.390000", "105626.390000", "105628.390000", "105630.390000", "105632.390000", "105634.390000", "105636.390000", "105638.390000", "105640.390000", "105642.390000", "105644.390000", "105646.390000", "105648.390000", "105650.390000", "105652.390000", "105654.390000", "105656.390000", "105658.265000"],
      "InstanceCreationTime": ["105000.906000", "105002.390000", "105004.390000", "105006.390000", "105008.390000", "105010.390000", "105012.390000", "105014.390000", "105016.390000", "105018.390000", "105020.390000", "105022.390000", "105024.390000", "105026.390000", "105028.390000", "105030.390000", "105032.390000", "105034.390000", "105036.390000", "105038.390000", "105040.390000", "105042.390000", "105044.390000", "105046.390000", "105048.390000", "105050.390000", "105052.390000", "105054.390000", "105056.390000", "105058.390000", "105100.390000", "105102.390000", "105104.390000", "105106.390000", "105108.390000", "105110.390000", "105112.390000", "105114.390000", "105116.390000", "105118.390000", "105120.390000", "105122.390000", "105124.390000", "105126.390000", "105128.390000", "105130.390000", "105132.390000", "105134.390000", "105136.390000", "105138.890000", "105140.390000", "105142.390000", "105144.390000", "105146.390000", "105148.390000", "105150.390000", "105152.390000", "105154.390000", "105156.890000", "105158.390000", "105200.390000", "105202.390000", "105204.390000", "105206.390000", "105208.390000", "105210.390000", "105212.390000", "105214.390000", "105216.390000", "105218.390000", "105220.390000", "105222.390000", "105224.390000", "105226.390000", "105228.390000", "105230.390000", "105232.390000", "105234.390000", "105236.390000", "105238.390000", "105240.390000", "105242.390000", "105244.390000", "105246.390000", "105248.390000", "105250.390000", "105252.390000", "105254.390000", "105256.390000", "105258.390000", "105300.390000", "105302.390000", "105304.390000", "105306.390000", "105308.390000", "105310.390000", "105312.390000", "105314.390000", "105316.390000", "105318.390000", "105320.390000", "105322.390000", "105324.390000", "105326.390000", "105328.390000", "105330.390000", "105332.390000", "105334.390000", "105336.390000", "105338.390000", "105340.390000", "105342.390000", "105344.390000", "105346.390000", "105348.390000", "105350.390000", "105352.390000", "105354.390000", "105356.390000", "105358.390000", "105400.390000", "105402.390000", "105404.390000", "105406.390000", "105408.390000", "105410.390000", "105412.390000", "105414.390000", "105416.390000", "105418.390000", "105420.390000", "105422.390000", "105424.390000", "105426.390000", "105428.390000", "105430.390000", "105432.390000", "105434.390000", "105436.390000", "105438.390000", "105440.390000", "105442.390000", "105444.390000", "105446.390000", "105448.390000", "105450.390000", "105452.390000", "105454.390000", "105456.390000", "105458.390000", "105500.390000", "105502.390000", "105504.390000", "105506.390000", "105508.390000", "105510.390000", "105512.390000", "105514.390000", "105516.390000", "105518.390000", "105520.390000", "105522.390000", "105524.390000", "105526.390000", "105528.390000", "105530.390000", "105532.390000", "105534.390000", "105536.390000", "105538.390000", "105540.390000", "105542.390000", "105544.390000", "105546.390000", "105548.390000", "105550.390000", "105552.390000", "105554.390000", "105556.390000", "105558.390000", "105600.390000", "105602.390000", "105604.390000", "105606.390000", "105608.390000", "105610.390000", "105612.390000", "105614.390000", "105616.390000", "105618.390000", "105620.390000", "105622.390000", "105624.390000", "105626.390000", "105628.390000", "105630.390000", "105632.390000", "105634.390000", "105636.390000", "105638.390000", "105640.390000", "105642.390000", "105644.390000", "105646.390000", "105648.390000", "105650.390000", "105652.390000", "105654.390000", "105656.390000", "105658.265000"],
      "InstanceNumber": [1, 2, 3, 4, 5, 6, 7, 8, 9, 10, 11, 12, 13, 14, 15, 16, 17, 18, 19, 20, 21, 22, 23, 24, 25, 26, 27, 28, 29, 30, 31, 32, 33, 34, 35, 36, 37, 38, 39, 40, 41, 42, 43, 44, 45, 46, 47, 48, 49, 50, 51, 52, 53, 54, 55, 56, 57, 58, 59, 60, 61, 62, 63, 64, 65, 66, 67, 68, 69, 70, 71, 72, 73, 74, 75, 76, 77, 78, 79, 80, 81, 82, 83, 84, 85, 86, 87, 88, 89, 90, 91, 92, 93, 94, 95, 96, 97, 98, 99, 100, 101, 102, 103, 104, 105, 106, 107, 108, 109, 110, 111, 112, 113, 114, 115, 116, 117, 118, 119, 120, 121, 122, 123, 124, 125, 126, 127, 128, 129, 130, 131, 132, 133, 134, 135, 136, 137, 138, 139, 140, 141, 142, 143, 144, 145, 146, 147, 148, 149, 150, 151, 152, 153, 154, 155, 156, 157, 158, 159, 160, 161, 162, 163, 164, 165, 166, 167, 168, 169, 170, 171, 172, 173, 174, 175, 176, 177, 178, 179, 180, 181, 182, 183, 184, 185, 186, 187, 188, 189, 190, 191, 192, 193, 194, 195, 196, 197, 198, 199, 200, 201, 202, 203, 204, 205, 206, 207, 208, 209, 210],
      "LargestImagePixelValue": [1926, 1885, 2042, 1840, 1824, 1856, 1852, 1845, 1877, 1822, 1907, 1830, 2005, 1826, 1971, 1863, 1847, 1955, 1833, 1834, 1813, 1811, 1822, 1809, 1829, 1826, 1808, 1826, 1889, 1808, 1825, 1863, 1827, 1969, 1829, 1905, 1802, 1805, 1823, 1814, 1824, 1812, 1813, 1824, 1839, 1811, 1800, 1891, 1813, 1874, 1857, 1930, 1818, 2026, 1813, 1840, 1833, 1843, 1836, 1826, 1824, 1849, 1845, 1856, 1849, 1859, 1846, 1865, 1959, 1870, 1915, 1854, 1982, 1852, 2026, 1857, 2008, 1828, 1844, 1841, 1838, 1837, 1839, 1826, 1885, 1816, 1836, 1813, 1831, 1843, 1860, 1848, 1835, 1964, 1841, 1855, 2051, 1827, 1863, 1836, 1843, 1996, 1832, 1832, 1825, 1840, 1881, 1825, 1825, 1810, 1812, 1908, 1958, 1852, 1951, 1898, 2021, 1827, 1813, 1825, 1840, 1841, 1868, 1864, 1853, 1868, 1847, 1850, 1856, 1847, 1863, 1860, 1871, 1865, 1876, 1867, 1856, 1843, 1881, 1859, 1862, 1872, 1892, 1937, 1864, 1899, 1885, 1956, 1871, 1855, 1852, 1847, 1875, 1853, 1846, 1873, 1861, 1854, 1855, 1843, 1868, 1849, 1927, 1892, 1862, 1856, 1872, 1828, 1858, 1824, 1848, 1847, 1835, 1847, 1944, 1780, 1898, 1910, 1823, 1841, 1830, 1844, 1842, 1830, 1847, 1848, 1983, 1849, 1854, 1854, 1860, 2017, 1847, 1841, 1833, 1863, 1953, 1846, 1853, 1859, 1877, 1924, 1870, 1886, 1882, 1848, 1947, 1891, 1960, 1854],
      "WindowCenter": [753.0, 749.0, 749.0, 749.0, 751.0, 752.0, 753.0, 753.0, 752.0, 750.0, 749.0, 749.0, 750.0, 750.0, 751.0, 752.0, 750.0, 749.0, 748.0, 750.0, 750.0, 750.0, 751.0, 751.0, 751.0, 752.0, 752.0, 752.0, 752.0, 750.0, 750.0, 750.0, 750.0, 750.0, 750.0, 750.0, 750.0, 749.0, 750.0, 750.0, 749.0, 749.0, 750.0, 750.0, 750.0, 750.0, 749.0, 750.0, 752.0, 752.0, 752.0, 753.0, 749.0, 747.0, 744.0, 745.0, 747.0, 748.0, 750.0, 751.0, 752.0, 752.0, 753.0, 754.0, 755.0, 756.0, 756.0, 757.0, 757.0, 756.0, 756.0, 755.0, 756.0, 754.0, 754.0, 752.0, 751.0, 750.0, 749.0, 751.0, 752.0, 751.0, 751.0, 752.0, 752.0, 751.0, 750.0, 750.0, 752.0, 753.0, 753.0, 752.0, 752.0, 753.0, 752.0, 753.0, 754.0, 753.0, 753.0, 752.0, 751.0, 751.0, 750.0, 750.0, 751.0, 752.0, 752.0, 752.0, 753.0, 753.0, 754.0, 759.0, 758.0, 755.0, 753.0, 750.0, 749.0, 748.0, 749.0, 749.0, 751.0, 753.0, 754.0, 754.0, 754.0, 755.0, 755.0, 754.0, 754.0, 752.0, 753.0, 754.0, 753.0, 753.0, 754.0, 755.0, 754.0, 753.0, 753.0, 753.0, 754.0, 756.0, 755.0, 755.0, 754.0, 755.0, 753.0, 753.0, 751.0, 751.0, 751.0, 753.0, 753.0, 752.0, 751.0, 752.0, 751.0, 750.0, 750.0, 751.0, 753.0, 754.0, 754.0, 753.0, 752.0, 753.0, 754.0, 753.0, 754.0, 754.0, 755.0, 755.0, 755.0, 754.0, 753.0, 751.0, 752.0, 752.0, 751.0, 751.0, 751.0, 751.0, 751.0, 752.0, 752.0, 752.0, 753.0, 754.0, 754.0, 755.0, 755.0, 755.0, 752.0, 752.0, 753.0, 753.0, 752.0, 752.0, 752.0, 752.0, 753.0, 755.0, 753.0, 754.0, 754.0, 753.0, 754.0, 755.0, 756.0, 754.0],
      "WindowWidth": [1604.0, 1593.0, 1593.0, 1593.0, 1599.0, 1602.0, 1604.0, 1604.0, 1601.0, 1596.0, 1595.0, 1593.0, 1597.0, 1597.0, 1600.0, 1601.0, 1596.0, 1593.0, 1592.0, 1596.0, 1596.0, 1597.0, 1599.0, 1599.0, 1599.0, 1602.0, 1602.0, 1601.0, 1600.0, 1596.0, 1595.0, 1596.0, 1596.0, 1597.0, 1596.0, 1596.0, 1596.0, 1594.0, 1595.0, 1595.0, 1593.0, 1594.0, 1596.0, 1597.0, 1596.0, 1595.0, 1594.0, 1597.0, 1602.0, 1601.0, 1603.0, 1603.0, 1592.0, 1588.0, 1583.0, 1585.0, 1588.0, 1592.0, 1596.0, 1599.0, 1600.0, 1602.0, 1604.0, 1607.0, 1610.0, 1612.0, 1612.0, 1613.0, 1613.0, 1611.0, 1611.0, 1611.0, 1613.0, 1608.0, 1606.0, 1601.0, 1600.0, 1596.0, 1595.0, 1598.0, 1601.0, 1600.0, 1600.0, 1600.0, 1600.0, 1598.0, 1597.0, 1597.0, 1601.0, 1605.0, 1603.0, 1602.0, 1601.0, 1605.0, 1603.0, 1604.0, 1607.0, 1604.0, 1605.0, 1602.0, 1599.0, 1599.0, 1596.0, 1596.0, 1600.0, 1603.0, 1602.0, 1602.0, 1605.0, 1605.0, 1607.0, 1621.0, 1617.0, 1609.0, 1605.0, 1597.0, 1593.0, 1591.0, 1593.0, 1595.0, 1599.0, 1604.0, 1606.0, 1606.0, 1608.0, 1610.0, 1609.0, 1607.0, 1605.0, 1602.0, 1604.0, 1606.0, 1603.0, 1605.0, 1608.0, 1608.0, 1606.0, 1605.0, 1604.0, 1603.0, 1606.0, 1611.0, 1610.0, 1610.0, 1607.0, 1608.0, 1605.0, 1603.0, 1598.0, 1598.0, 1598.0, 1603.0, 1605.0, 1602.0, 1599.0, 1600.0, 1599.0, 1596.0, 1596.0, 1599.0, 1605.0, 1608.0, 1607.0, 1605.0, 1603.0, 1604.0, 1607.0, 1605.0, 1605.0, 1605.0, 1609.0, 1608.0, 1608.0, 1606.0, 1605.0, 1594.0, 1602.0, 1602.0, 1599.0, 1599.0, 1598.0, 1600.0, 1600.0, 1601.0, 1600.0, 1601.0, 1604.0, 1606.0, 1608.0, 1610.0, 1610.0, 1608.0, 1602.0, 1603.0, 1603.0, 1603.0, 1602.0, 1601.0, 1601.0, 1601.0, 1603.0, 1608.0, 1605.0, 1606.0, 1605.0, 1604.0, 1606.0, 1609.0, 1611.0, 1607.0]
    },
    "slices": {}
  }
}