{
  "AcquisitionMatrixPE": 64,
  "AcquisitionNumber": 1,
  "AcquisitionTime": "09:49:27.770000",
  "BandwidthPerPixelPhaseEncode": 30.637,
  "BaseResolution": 64,
  "BidsGuess": [
    "func",
    "_acq-epfid2_dir-AP_run-3_bold"
],
  "CoilCombinationMethod": "Sum of Squares",
  "CoilString": "C:HEA;HEP",
  "ConversionSoftware": "dcm2niix",
  "ConversionSoftwareVersion": "v1.0.20240202",
  "DerivedVendorReportedEchoSpacing": 0.000510004,
  "DeviceSerialNumber": "35119",
  "DwellTime": 3.5e-06,
  "EchoTime": 0.03,
  "EffectiveEchoSpacing": 0.000510004,
  "FlipAngle": 78,
  "HeudiconvVersion": "1.1.6",
  "ImageComments": "V",
  "ImageOrientationPatientDICOM": [0.998299, 0.013034, 0.056827, 0, 0.974691, -0.223556],
  "ImageOrientationText": "Tra>Cor(-12.9)>Sag(3.3)",
  "ImageType": [
    "ORIGINAL",
    "PRIMARY",
    "M",
    "ND",
    "MOSAIC"
],
  "ImagingFrequency": 123.251942,
  "InPlanePhaseEncodingDirectionDICOM": "COL",
  "InstitutionAddress": "Chaucer Road  15,Cambridge,UK,GB,CB2 2EF",
  "InstitutionName": "MRC-CBU",
  "MRAcquisitionType": "2D",
  "MagneticFieldStrength": 3,
  "Manufacturer": "Siemens",
  "ManufacturersModelName": "TrioTim",
  "MatrixCoilMode": "SENSE",
  "Modality": "MR",
  "NonlinearGradientCorrection": false,
  "PartialFourier": 1,
  "PatientPosition": "HFS",
  "PercentPhaseFOV": 100,
  "PercentSampling": 100,
  "PhaseEncodingDirection": "j-",
  "PhaseEncodingSteps": 64,
  "PhaseResolution": 1,
  "PixelBandwidth": 2230,
  "ProcedureStepDescription": "CBU^Neuroimaging",
  "ProtocolName": "CBU_DWEPI_BOLD210",
  "PulseSequenceDetails": "%SiemensSeq%\\ep2d_bold",
  "ReceiveCoilName": "HeadMatrix",
  "ReconMatrixPE": 64,
  "RepetitionTime": 2,
  "SAR": 0.122885,
  "ScanOptions": "FS",
  "ScanningSequence": "EP",
  "SequenceName": "*epfid2d1_64",
  "SequenceVariant": "SK",
  "SeriesDescription": "CBU_DWEPI_BOLD210",
  "SeriesNumber": 3,
  "ShimSetting": [-7762, -8717, -2302, 927, 347, 526, 435, -106],
  "SliceThickness": 3,
  "SliceTiming": [0, 1.0325, 0.06, 1.095, 0.12, 1.155, 0.1825, 1.215, 0.2425, 1.2775, 0.3025, 1.3375, 0.365, 1.3975, 0.425, 1.46, 0.485, 1.52, 0.5475, 1.58, 0.6075, 1.6425, 0.6675, 1.7025, 0.73, 1.7625, 0.79, 1.825, 0.85, 1.885, 0.9125, 1.945, 0.9725],
  "SoftwareVersions": "syngo MR B15",
  "SpacingBetweenSlices": 3.9,
  "StationName": "MRC35119",
  "TaskName": "faceprocessing",
  "TotalReadoutTime": 0.0321303,
  "TxRefAmp": 318.558,
  "dcmmeta_affine": [
    [-2.99489688873291, 0.0, 0.22738011181354523, 96.9637222290039],
    [-0.03910199925303459, 2.9240729808807373, -0.8703853487968445, -67.60459899902344],
    [0.17048099637031555, 0.6706680059432983, 3.7948288917541504, -64.70323944091797],
    [0.0, 0.0, 0.0, 1.0]
],
  "dcmmeta_reorient_transform": [
    [0.0, -1.0, 0.0, 63.0],
    [1.0, 0.0, 0.0, 0.0],
    [0.0, 0.0, 1.0, 0.0],
    [0.0, 0.0, 0.0, 1.0]
],
  "dcmmeta_shape": [64, 64, 33, 210],
  "dcmmeta_slice_dim": 2,
  "dcmmeta_version": 0.6,
  "global": {
    "const": {
      "AcquisitionMatrix": [64, 0, 0, 64],
      "AngioFlag": "N",
      "BitsAllocated": 16,
      "BitsStored": 12,
      "Columns": 384,
      "EchoNumbers": 1,
      "EchoTime": 30.0,
      "EchoTrainLength": 1,
      "FlipAngle": 78.0,
      "HighBit": 11,
      "ImageOrientationPatient": [0.998299, 0.013034, 0.056827, 0.0, 0.974691, -0.223556],
      "ImagePositionPatient": [-576.147246, -590.719998, 57.578768],
      "ImageType": [
        "ORIGINAL",
        "PRIMARY",
        "M",
        "ND",
        "MOSAIC"
],
      "ImagedNucleus": "1H",
      "ImagingFrequency": 123.251942,
      "InPlanePhaseEncodingDirection": "COL",
      "MRAcquisitionType": "2D",
      "MagneticFieldStrength": 3.0,
      "Manufacturer": "SIEMENS",
      "ManufacturerModelName": "TrioTim",
      "Modality": "MR",
      "NumberOfAverages": 1.0,
      "NumberOfPhaseEncodingSteps": 64,
      "PercentPhaseFieldOfView": 100.0,
      "PercentSampling": 100.0,
      "PerformedProcedureStepStartTime": "093853.812000",
      "PhotometricInterpretation": "MONOCHROME2",
      "PixelAspectRatio": [1, 1],
      "PixelBandwidth": 2230.0,
      "PixelRepresentation": 0,
      "PixelSpacing": [3.0, 3.0],
      "ProtocolName": "CBU_DWEPI_BOLD210",
      "RepetitionTime": 2000.0,
      "Rows": 384,
      "SAR": 0.122885,
      "SamplesPerPixel": 1,
      "ScanOptions": "FS",
      "ScanningSequence": "EP",
      "SequenceName": "*epfid2d1_64",
      "SequenceVariant": "SK",
      "SeriesDescription": "CBU_DWEPI_BOLD210",
      "SeriesNumber": 3,
      "SeriesTime": "094931.093000",
      "SliceLocation": -42.217141,
      "SliceThickness": 3.0,
      "SmallestImagePixelValue": 0,
      "SoftwareVersions": "syngo MR B15",
      "SpacingBetweenSlices": 3.9,
      "SpecificCharacterSet": "ISO_IR 100",
      "StudyID": "1",
      "StudyTime": "093853.750000",
      "TransmitCoilName": "Body",
      "VariableFlipAngleFlag": "N",
      "WindowCenterWidthExplanation": "Algo1",
      "dBdt": 0.0},
    "slices": {}
  },
  "time": {
    "samples": {
      "AcquisitionNumber": [1, 2, 3, 4, 5, 6, 7, 8, 9, 10, 11, 12, 13, 14, 15, 16, 17, 18, 19, 20, 21, 22, 23, 24, 25, 26, 27, 28, 29, 30, 31, 32, 33, 34, 35, 36, 37, 38, 39, 40, 41, 42, 43, 44, 45, 46, 47, 48, 49, 50, 51, 52, 53, 54, 55, 56, 57, 58, 59, 60, 61, 62, 63, 64, 65, 66, 67, 68, 69, 70, 71, 72, 73, 74, 75, 76, 77, 78, 79, 80, 81, 82, 83, 84, 85, 86, 87, 88, 89, 90, 91, 92, 93, 94, 95, 96, 97, 98, 99, 100, 101, 102, 103, 104, 105, 106, 107, 108, 109, 110, 111, 112, 113, 114, 115, 116, 117, 118, 119, 120, 121, 122, 123, 124, 125, 126, 127, 128, 129, 130, 131, 132, 133, 134, 135, 136, 137, 138, 139, 140, 141, 142, 143, 144, 145, 146, 147, 148, 149, 150, 151, 152, 153, 154, 155, 156, 157, 158, 159, 160, 161, 162, 163, 164, 165, 166, 167, 168, 169, 170, 171, 172, 173, 174, 175, 176, 177, 178, 179, 180, 181, 182, 183, 184, 185, 186, 187, 188, 189, 190, 191, 192, 193, 194, 195, 196, 197, 198, 199, 200, 201, 202, 203, 204, 205, 206, 207, 208, 209, 210],
      "AcquisitionTime": ["094927.770000", "094929.777500", "094931.785000", "094933.792500", "094935.800000", "094937.810000", "094939.817500", "094941.825000", "094943.832500", "094945.840000", "094947.850000", "094949.857500", "094951.865000", "094953.872500", "094955.882500", "094957.890000", "094959.897500", "095001.905000", "095003.912500", "095005.922500", "095007.930000", "095009.937500", "095011.945000", "095013.952500", "095015.962500", "095017.970000", "095019.977500", "095021.985000", "095023.992500", "095026.002500", "095028.010000", "095030.017500", "095032.025000", "095034.035000", "095036.042500", "095038.050000", "095040.057500", "095042.065000", "095044.075000", "095046.082500", "095048.090000", "095050.097500", "095052.105000", "095054.115000", "095056.122500", "095058.130000", "095100.137500", "095102.147500", "095104.155000", "095106.162500", "095108.170000", "095110.177500", "095112.187500", "095114.195000", "095116.202500", "095118.210000", "095120.217500", "095122.227500", "095124.235000", "095126.242500", "095128.250000", "095130.260000", "095132.267500", "095134.275000", "095136.282500", "095138.290000", "095140.300000", "095142.307500", "095144.315000", "095146.322500", "095148.330000", "095150.340000", "095152.347500", "095154.355000", "095156.362500", "095158.370000", "095200.380000", "095202.387500", "095204.395000", "095206.402500", "095208.412500", "095210.420000", "095212.427500", "095214.435000", "095216.442500", "095218.452500", "095220.460000", "095222.467500", "095224.475000", "095226.482500", "095228.492500", "095230.500000", "095232.507500", "095234.515000", "095236.525000", "095238.532500", "095240.540000", "095242.547500", "095244.555000", "095246.565000", "095248.572500", "095250.580000", "095252.587500", "095254.595000", "095256.605000", "095258.612500", "095300.620000", "095302.627500", "095304.637500", "095306.645000", "095308.652500", "095310.660000", "095312.667500", "095314.677500", "095316.685000", "095318.692500", "095320.700000", "095322.707500", "095324.717500", "095326.725000", "095328.732500", "095330.740000", "095332.747500", "095334.757500", "095336.765000", "095338.772500", "095340.780000", "095342.790000", "095344.797500", "095346.805000", "095348.812500", "095350.820000", "095352.830000", "095354.837500", "095356.845000", "095358.852500", "095400.860000", "095402.870000", "095404.877500", "095406.885000", "095408.892500", "095410.902500", "095412.910000", "095414.917500", "095416.925000", "095418.932500", "095420.942500", "095422.950000", "095424.957500", "095426.965000", "095428.972500", "095430.982500", "095432.990000", "095434.997500", "095437.005000", "095439.015000", "095441.022500", "095443.030000", "095445.037500", "095447.045000", "095449.055000", "095451.062500", "095453.070000", "095455.077500", "095457.085000", "095459.095000", "095501.102500", "095503.110000", "095505.117500", "095507.125000", "095509.135000", "095511.142500", "095513.150000", "095515.157500", "095517.167500", "095519.175000", "095521.182500", "095523.190000", "095525.197500", "095527.207500", "095529.215000", "095531.222500", "095533.230000", "095535.237500", "095537.247500", "095539.255000", "095541.262500", "095543.270000", "095545.280000", "095547.287500", "095549.295000", "095551.302500", "095553.310000", "095555.320000", "095557.327500", "095559.335000", "095601.342500", "095603.350000", "095605.360000", "095607.367500", "095609.375000", "095611.382500", "095613.392500", "095615.400000", "095617.407500", "095619.415000", "095621.422500", "095623.432500", "095625.440000", "095627.447500"],
      "ContentTime": ["094931.109000", "094933.093000", "094935.093000", "094937.093000", "094939.093000", "094941.093000", "094943.093000", "094945.093000", "094947.093000", "094949.093000", "094951.093000", "094953.093000", "094955.093000", "094957.093000", "094959.093000", "095001.093000", "095003.093000", "095005.093000", "095007.093000", "095009.093000", "095011.093000", "095013.093000", "095015.093000", "095017.093000", "095019.093000", "095021.093000", "095023.093000", "095025.093000", "095027.093000", "095029.093000", "095031.093000", "095033.093000", "095035.093000", "095037.093000", "095039.093000", "095041.093000", "095043.093000", "095045.093000", "095047.093000", "095049.093000", "095051.093000", "095053.093000", "095055.093000", "095057.093000", "095059.093000", "095101.093000", "095103.093000", "095105.093000", "095107.093000", "095109.093000", "095111.093000", "095113.093000", "095115.093000", "095117.093000", "095119.093000", "095121.093000", "095123.093000", "095125.093000", "095127.093000", "095129.093000", "095131.093000", "095133.093000", "095135.093000", "095137.093000", "095139.093000", "095141.093000", "095143.093000", "095145.093000", "095147.093000", "095149.093000", "095151.093000", "095153.093000", "095155.093000", "095157.093000", "095159.093000", "095201.093000", "095203.093000", "095205.093000", "095207.093000", "095209.093000", "095211.093000", "095213.093000", "095215.093000", "095217.093000", "095219.093000", "095221.093000", "095223.093000", "095225.093000", "095227.093000", "095229.093000", "095231.093000", "095233.093000", "095235.093000", "095237.093000", "095239.093000", "095241.093000", "095243.093000", "095245.140000", "095247.093000", "095249.093000", "095251.093000", "095253.093000", "095255.093000", "095257.093000", "095259.093000", "095301.093000", "095303.093000", "095305.093000", "095307.093000", "095309.093000", "095311.093000", "095313.093000", "095315.093000", "095317.093000", "095319.093000", "095321.093000", "095323.093000", "095325.093000", "095327.093000", "095329.093000", "095331.093000", "095333.093000", "095335.093000", "095337.093000", "095339.093000", "095341.093000", "095343.093000", "095345.093000", "095347.093000", "095349.093000", "095351.093000", "095353.093000", "095355.093000", "095357.093000", "095359.093000", "095401.093000", "095403.093000", "095405.093000", "095407.093000", "095409.093000", "095411.093000", "095413.093000", "095415.093000", "095417.093000", "095419.093000", "095421.093000", "095423.093000", "095425.093000", "095427.093000", "095429.093000", "095431.093000", "095433.093000", "095435.093000", "095437.093000", "095439.093000", "095441.093000", "095443.093000", "095445.093000", "095447.093000", "095449.093000", "095451.093000", "095453.093000", "095455.093000", "095457.093000", "095459.093000", "095501.093000", "095503.093000", "095505.093000", "095507.093000", "095509.093000", "095511.093000", "095513.093000", "095515.093000", "095517.093000", "095519.093000", "095521.093000", "095523.093000", "095525.093000", "095527.093000", "095529.093000", "095531.093000", "095533.093000", "095535.093000", "095537.093000", "095539.093000", "095541.093000", "095543.093000", "095545.093000", "095547.093000", "095549.093000", "095551.093000", "095553.093000", "095555.093000", "095557.093000", "095559.093000", "095601.093000", "095603.093000", "095605.093000", "095607.093000", "095609.093000", "095611.093000", "095613.093000", "095615.093000", "095617.093000", "095619.093000", "095621.093000", "095623.093000", "095625.093000", "095627.093000", "095628.656000"],
      "InstanceCreationTime": ["094931.109000", "094933.093000", "094935.093000", "094937.093000", "094939.093000", "094941.093000", "094943.093000", "094945.093000", "094947.093000", "094949.093000", "094951.093000", "094953.093000", "094955.093000", "094957.093000", "094959.093000", "095001.093000", "095003.093000", "095005.093000", "095007.093000", "095009.093000", "095011.093000", "095013.093000", "095015.093000", "095017.093000", "095019.093000", "095021.093000", "095023.093000", "095025.093000", "095027.093000", "095029.093000", "095031.093000", "095033.093000", "095035.093000", "095037.093000", "095039.093000", "095041.093000", "095043.093000", "095045.093000", "095047.093000", "095049.093000", "095051.093000", "095053.093000", "095055.093000", "095057.093000", "095059.093000", "095101.093000", "095103.093000", "095105.093000", "095107.093000", "095109.093000", "095111.093000", "095113.093000", "095115.093000", "095117.093000", "095119.093000", "095121.093000", "095123.093000", "095125.093000", "095127.093000", "095129.093000", "095131.093000", "095133.093000", "095135.093000", "095137.093000", "095139.093000", "095141.093000", "095143.093000", "095145.093000", "095147.093000", "095149.093000", "095151.093000", "095153.093000", "095155.093000", "095157.093000", "095159.093000", "095201.093000", "095203.093000", "095205.093000", "095207.093000", "095209.093000", "095211.093000", "095213.093000", "095215.093000", "095217.093000", "095219.093000", "095221.093000", "095223.093000", "095225.093000", "095227.093000", "095229.093000", "095231.093000", "095233.093000", "095235.093000", "095237.093000", "095239.093000", "095241.093000", "095243.093000", "095245.140000", "095247.093000", "095249.093000", "095251.093000", "095253.093000", "095255.093000", "095257.093000", "095259.093000", "095301.093000", "095303.093000", "095305.093000", "095307.093000", "095309.093000", "095311.093000", "095313.093000", "095315.093000", "095317.093000", "095319.093000", "095321.093000", "095323.093000", "095325.093000", "095327.093000", "095329.093000", "095331.093000", "095333.093000", "095335.093000", "095337.093000", "095339.093000", "095341.093000", "095343.093000", "095345.093000", "095347.093000", "095349.093000", "095351.093000", "095353.093000", "095355.093000", "095357.093000", "095359.093000", "095401.093000", "095403.093000", "095405.093000", "095407.093000", "095409.093000", "095411.093000", "095413.093000", "095415.093000", "095417.093000", "095419.093000", "095421.093000", "095423.093000", "095425.093000", "095427.093000", "095429.093000", "095431.093000", "095433.093000", "095435.093000", "095437.093000", "095439.093000", "095441.093000", "095443.093000", "095445.093000", "095447.093000", "095449.093000", "095451.093000", "095453.093000", "095455.093000", "095457.093000", "095459.093000", "095501.093000", "095503.093000", "095505.093000", "095507.093000", "095509.093000", "095511.093000", "095513.093000", "095515.093000", "095517.093000", "095519.093000", "095521.093000", "095523.093000", "095525.093000", "095527.093000", "095529.093000", "095531.093000", "095533.093000", "095535.093000", "095537.093000", "095539.093000", "095541.093000", "095543.093000", "095545.093000", "095547.093000", "095549.093000", "095551.093000", "095553.093000", "095555.093000", "095557.093000", "095559.093000", "095601.093000", "095603.093000", "095605.093000", "095607.093000", "095609.093000", "095611.093000", "095613.093000", "095615.093000", "095617.093000", "095619.093000", "095621.093000", "095623.093000", "095625.093000", "095627.093000", "095628.656000"],
      "InstanceNumber": [1, 2, 3, 4, 5, 6, 7, 8, 9, 10, 11, 12, 13, 14, 15, 16, 17, 18, 19, 20, 21, 22, 23, 24, 25, 26, 27, 28, 29, 30, 31, 32, 33, 34, 35, 36, 37, 38, 39, 40, 41, 42, 43, 44, 45, 46, 47, 48, 49, 50, 51, 52, 53, 54, 55, 56, 57, 58, 59, 60, 61, 62, 63, 64, 65, 66, 67, 68, 69, 70, 71, 72, 73, 74, 75, 76, 77, 78, 79, 80, 81, 82, 83, 84, 85, 86, 87, 88, 89, 90, 91, 92, 93, 94, 95, 96, 97, 98, 99, 100, 101, 102, 103, 104, 105, 106, 107, 108, 109, 110, 111, 112, 113, 114, 115, 116, 117, 118, 119, 120, 121, 122, 123, 124, 125, 126, 127, 128, 129, 130, 131, 132, 133, 134, 135, 136, 137, 138, 139, 140, 141, 142, 143, 144, 145, 146, 147, 148, 149, 150, 151, 152, 153, 154, 155, 156, 157, 158, 159, 160, 161, 162, 163, 164, 165, 166, 167, 168, 169, 170, 171, 172, 173, 174, 175, 176, 177, 178, 179, 180, 181, 182, 183, 184, 185, 186, 187, 188, 189, 190, 191, 192, 193, 194, 195, 196, 197, 198, 199, 200, 201, 202, 203, 204, 205, 206, 207, 208, 209, 210],
      "LargestImagePixelValue": [2059, 1991, 1951, 1942, 1934, 1923, 1937, 1919, 1927, 1918, 1923, 1907, 1917, 1922, 1935, 1911, 1910, 1910, 1904, 1908, 1914, 1906, 1915, 1911, 1909, 1916, 1911, 1960, 1909, 1908, 1920, 1909, 1915, 1925, 1915, 1916, 1918, 1904, 1916, 1909, 1887, 1914, 1910, 1912, 1907, 1901, 1918, 1915, 1905, 1918, 1907, 1905, 1917, 1883, 1910, 1900, 1881, 1916, 1906, 1912, 1902, 1906, 1930, 1905, 1918, 1921, 1924, 1918, 1917, 1930, 1927, 1926, 1931, 1930, 1933, 1926, 1921, 1923, 1932, 1911, 1924, 1917, 1921, 1947, 1932, 1923, 1926, 1917, 1943, 1937, 1918, 1939, 1925, 1932, 1926, 1917, 1934, 1928, 1952, 1947, 1969, 1989, 1960, 1936, 1959, 1933, 1943, 1974, 1960, 1959, 1952, 1962, 1955, 1936, 1945, 1936, 1967, 1927, 1939, 1922, 1960, 1939, 1936, 1940, 1946, 1947, 1937, 1947, 1943, 1918, 1933, 1946, 1956, 1945, 1925, 1940, 1935, 1940, 1930, 1927, 1932, 1931, 1946, 1937, 1950, 1938, 1940, 1933, 1960, 1947, 1942, 1944, 1944, 1933, 1943, 1934, 1946, 1945, 1953, 1940, 1941, 1947, 1950, 1943, 1938, 1951, 1952, 1960, 1951, 1944, 1945, 1960, 1952, 1963, 1958, 1955, 1956, 1936, 1954, 1981, 1960, 1960, 1965, 1966, 1956, 1961, 1967, 1973, 1964, 1976, 1945, 1979, 1977, 1982, 1953, 1962, 1959, 1979, 1947, 1978, 1958, 1967, 1960, 1960, 1974, 1964, 1958, 1968, 1953, 1977],
      "WindowCenter": [741.0, 739.0, 739.0, 739.0, 740.0, 740.0, 739.0, 738.0, 738.0, 738.0, 737.0, 737.0, 738.0, 738.0, 739.0, 739.0, 740.0, 740.0, 741.0, 742.0, 743.0, 743.0, 743.0, 742.0, 742.0, 742.0, 741.0, 740.0, 739.0, 738.0, 738.0, 738.0, 739.0, 739.0, 740.0, 740.0, 740.0, 740.0, 740.0, 741.0, 741.0, 741.0, 742.0, 741.0, 741.0, 741.0, 741.0, 741.0, 740.0, 740.0, 739.0, 739.0, 739.0, 739.0, 739.0, 739.0, 738.0, 739.0, 739.0, 739.0, 739.0, 739.0, 739.0, 739.0, 738.0, 738.0, 739.0, 739.0, 740.0, 739.0, 740.0, 740.0, 740.0, 740.0, 740.0, 740.0, 740.0, 740.0, 741.0, 740.0, 741.0, 742.0, 741.0, 741.0, 741.0, 740.0, 740.0, 740.0, 741.0, 741.0, 740.0, 740.0, 740.0, 740.0, 741.0, 741.0, 740.0, 739.0, 739.0, 738.0, 738.0, 741.0, 742.0, 740.0, 738.0, 737.0, 735.0, 736.0, 736.0, 738.0, 739.0, 740.0, 741.0, 742.0, 742.0, 743.0, 743.0, 743.0, 743.0, 744.0, 744.0, 743.0, 743.0, 743.0, 743.0, 743.0, 743.0, 742.0, 742.0, 741.0, 741.0, 741.0, 741.0, 742.0, 743.0, 743.0, 743.0, 743.0, 743.0, 743.0, 743.0, 742.0, 742.0, 741.0, 741.0, 741.0, 740.0, 740.0, 740.0, 739.0, 740.0, 740.0, 740.0, 740.0, 741.0, 741.0, 742.0, 742.0, 742.0, 742.0, 743.0, 743.0, 744.0, 745.0, 744.0, 744.0, 744.0, 745.0, 745.0, 745.0, 744.0, 743.0, 743.0, 743.0, 743.0, 742.0, 742.0, 741.0, 742.0, 742.0, 742.0, 742.0, 741.0, 741.0, 741.0, 741.0, 741.0, 740.0, 740.0, 741.0, 741.0, 741.0, 741.0, 741.0, 741.0, 741.0, 741.0, 741.0, 742.0, 742.0, 743.0, 743.0, 744.0, 744.0, 745.0, 745.0, 744.0, 745.0, 744.0, 744.0],
      "WindowWidth": [1575.0, 1568.0, 1568.0, 1569.0, 1570.0, 1570.0, 1567.0, 1565.0, 1565.0, 1565.0, 1563.0, 1563.0, 1564.0, 1565.0, 1568.0, 1568.0, 1570.0, 1571.0, 1573.0, 1575.0, 1577.0, 1577.0, 1577.0, 1576.0, 1576.0, 1576.0, 1574.0, 1570.0, 1567.0, 1565.0, 1564.0, 1566.0, 1567.0, 1569.0, 1570.0, 1571.0, 1570.0, 1569.0, 1571.0, 1572.0, 1574.0, 1574.0, 1575.0, 1574.0, 1573.0, 1574.0, 1573.0, 1572.0, 1570.0, 1570.0, 1569.0, 1567.0, 1568.0, 1568.0, 1567.0, 1568.0, 1566.0, 1567.0, 1567.0, 1567.0, 1567.0, 1567.0, 1569.0, 1568.0, 1566.0, 1566.0, 1568.0, 1569.0, 1570.0, 1569.0, 1570.0, 1570.0, 1571.0, 1571.0, 1570.0, 1571.0, 1571.0, 1571.0, 1572.0, 1572.0, 1572.0, 1575.0, 1574.0, 1573.0, 1572.0, 1571.0, 1571.0, 1571.0, 1572.0, 1573.0, 1572.0, 1571.0, 1570.0, 1571.0, 1574.0, 1573.0, 1571.0, 1569.0, 1569.0, 1566.0, 1567.0, 1574.0, 1575.0, 1569.0, 1565.0, 1562.0, 1559.0, 1559.0, 1561.0, 1566.0, 1568.0, 1571.0, 1573.0, 1575.0, 1576.0, 1577.0, 1579.0, 1579.0, 1579.0, 1579.0, 1580.0, 1579.0, 1578.0, 1578.0, 1577.0, 1577.0, 1577.0, 1575.0, 1575.0, 1574.0, 1573.0, 1574.0, 1574.0, 1576.0, 1578.0, 1578.0, 1577.0, 1577.0, 1578.0, 1577.0, 1577.0, 1577.0, 1575.0, 1573.0, 1574.0, 1574.0, 1571.0, 1571.0, 1570.0, 1568.0, 1570.0, 1571.0, 1571.0, 1571.0, 1572.0, 1572.0, 1574.0, 1575.0, 1576.0, 1577.0, 1577.0, 1579.0, 1582.0, 1582.0, 1581.0, 1581.0, 1581.0, 1583.0, 1583.0, 1582.0, 1581.0, 1578.0, 1577.0, 1577.0, 1577.0, 1576.0, 1575.0, 1573.0, 1574.0, 1577.0, 1576.0, 1575.0, 1574.0, 1573.0, 1574.0, 1573.0, 1572.0, 1571.0, 1572.0, 1573.0, 1573.0, 1573.0, 1574.0, 1573.0, 1572.0, 1574.0, 1573.0, 1574.0, 1575.0, 1576.0, 1579.0, 1578.0, 1580.0, 1582.0, 1583.0, 1582.0, 1582.0, 1582.0, 1582.0, 1580.0]
    },
    "slices": {}
  }
}