{
  "AcquisitionMatrixPE": 64,
  "AcquisitionNumber": 1,
  "AcquisitionTime": "09:56:57.550000",
  "BandwidthPerPixelPhaseEncode": 30.637,
  "BaseResolution": 64,
  "BidsGuess": [
    "func",
    "_acq-epfid2_dir-AP_run-4_bold"
],
  "CoilCombinationMethod": "Sum of Squares",
  "CoilString": "C:HEA;HEP",
  "ConversionSoftware": "dcm2niix",
  "ConversionSoftwareVersion": "v1.0.20240202",
  "DerivedVendorReportedEchoSpacing": 0.000510004,
  "DeviceSerialNumber": "35119",
  "DwellTime": 3.5e-06,
  "EchoTime": 0.03,
  "EffectiveEchoSpacing": 0.000510004,
  "FlipAngle": 78,
  "HeudiconvVersion": "1.1.6",
  "ImageComments": "V",
  "ImageOrientationPatientDICOM": [0.998299, 0.013034, 0.056827, 0, 0.974691, -0.223556],
  "ImageOrientationText": "Tra>Cor(-12.9)>Sag(3.3)",
  "ImageType": [
    "ORIGINAL",
    "PRIMARY",
    "M",
    "ND",
    "MOSAIC"
],
  "ImagingFrequency": 123.251949,
  "InPlanePhaseEncodingDirectionDICOM": "COL",
  "InstitutionAddress": "Chaucer Road  15,Cambridge,UK,GB,CB2 2EF",
  "InstitutionName": "MRC-CBU",
  "MRAcquisitionType": "2D",
  "MagneticFieldStrength": 3,
  "Manufacturer": "Siemens",
  "ManufacturersModelName": "TrioTim",
  "MatrixCoilMode": "SENSE",
  "Modality": "MR",
  "NonlinearGradientCorrection": false,
  "PartialFourier": 1,
  "PatientPosition": "HFS",
  "PercentPhaseFOV": 100,
  "PercentSampling": 100,
  "PhaseEncodingDirection": "j-",
  "PhaseEncodingSteps": 64,
  "PhaseResolution": 1,
  "PixelBandwidth": 2230,
  "ProcedureStepDescription": "CBU^Neuroimaging",
  "ProtocolName": "CBU_DWEPI_BOLD210",
  "PulseSequenceDetails": "%SiemensSeq%\\ep2d_bold",
  "ReceiveCoilName": "HeadMatrix",
  "ReconMatrixPE": 64,
  "RepetitionTime": 2,
  "SAR": 0.122885,
  "ScanOptions": "FS",
  "ScanningSequence": "EP",
  "SequenceName": "*epfid2d1_64",
  "SequenceVariant": "SK",
  "SeriesDescription": "CBU_DWEPI_BOLD210",
  "SeriesNumber": 4,
  "ShimSetting": [-7762, -8717, -2302, 927, 347, 526, 435, -106],
  "SliceThickness": 3,
  "SliceTiming": [0, 1.0325, 0.06, 1.095, 0.12, 1.155, 0.1825, 1.215, 0.2425, 1.2775, 0.3025, 1.3375, 0.365, 1.3975, 0.425, 1.46, 0.485, 1.52, 0.5475, 1.58, 0.6075, 1.6425, 0.6675, 1.7025, 0.73, 1.7625, 0.79, 1.825, 0.85, 1.885, 0.9125, 1.945, 0.9725],
  "SoftwareVersions": "syngo MR B15",
  "SpacingBetweenSlices": 3.9,
  "StationName": "MRC35119",
  "TaskName": "faceprocessing",
  "TotalReadoutTime": 0.0321303,
  "TxRefAmp": 318.558,
  "dcmmeta_affine": [
    [-2.99489688873291, 0.0, 0.22738011181354523, 96.9637222290039],
    [-0.03910199925303459, 2.9240729808807373, -0.8703853487968445, -67.60459899902344],
    [0.17048099637031555, 0.6706680059432983, 3.7948288917541504, -64.70323944091797],
    [0.0, 0.0, 0.0, 1.0]
],
  "dcmmeta_reorient_transform": [
    [0.0, -1.0, 0.0, 63.0],
    [1.0, 0.0, 0.0, 0.0],
    [0.0, 0.0, 1.0, 0.0],
    [0.0, 0.0, 0.0, 1.0]
],
  "dcmmeta_shape": [64, 64, 33, 210],
  "dcmmeta_slice_dim": 2,
  "dcmmeta_version": 0.6,
  "global": {
    "const": {
      "AcquisitionMatrix": [64, 0, 0, 64],
      "AngioFlag": "N",
      "BitsAllocated": 16,
      "BitsStored": 12,
      "Columns": 384,
      "EchoNumbers": 1,
      "EchoTime": 30.0,
      "EchoTrainLength": 1,
      "FlipAngle": 78.0,
      "HighBit": 11,
      "ImageOrientationPatient": [0.998299, 0.013034, 0.056827, 0.0, 0.974691, -0.223556],
      "ImagePositionPatient": [-576.147246, -590.719998, 57.578768],
      "ImageType": [
        "ORIGINAL",
        "PRIMARY",
        "M",
        "ND",
        "MOSAIC"
],
      "ImagedNucleus": "1H",
      "ImagingFrequency": 123.251949,
      "InPlanePhaseEncodingDirection": "COL",
      "MRAcquisitionType": "2D",
      "MagneticFieldStrength": 3.0,
      "Manufacturer": "SIEMENS",
      "ManufacturerModelName": "TrioTim",
      "Modality": "MR",
      "NumberOfAverages": 1.0,
      "NumberOfPhaseEncodingSteps": 64,
      "PercentPhaseFieldOfView": 100.0,
      "PercentSampling": 100.0,
      "PerformedProcedureStepStartTime": "093853.812000",
      "PhotometricInterpretation": "MONOCHROME2",
      "PixelAspectRatio": [1, 1],
      "PixelBandwidth": 2230.0,
      "PixelRepresentation": 0,
      "PixelSpacing": [3.0, 3.0],
      "ProtocolName": "CBU_DWEPI_BOLD210",
      "RepetitionTime": 2000.0,
      "Rows": 384,
      "SAR": 0.122885,
      "SamplesPerPixel": 1,
      "ScanOptions": "FS",
      "ScanningSequence": "EP",
      "SequenceName": "*epfid2d1_64",
      "SequenceVariant": "SK",
      "SeriesDescription": "CBU_DWEPI_BOLD210",
      "SeriesNumber": 4,
      "SeriesTime": "095701.062000",
      "SliceLocation": -42.217141,
      "SliceThickness": 3.0,
      "SmallestImagePixelValue": 0,
      "SoftwareVersions": "syngo MR B15",
      "SpacingBetweenSlices": 3.9,
      "SpecificCharacterSet": "ISO_IR 100",
      "StudyID": "1",
      "StudyTime": "093853.750000",
      "TransmitCoilName": "Body",
      "VariableFlipAngleFlag": "N",
      "WindowCenterWidthExplanation": "Algo1",
      "dBdt": 0.0},
    "slices": {}
  },
  "time": {
    "samples": {
      "AcquisitionNumber": [1, 2, 3, 4, 5, 6, 7, 8, 9, 10, 11, 12, 13, 14, 15, 16, 17, 18, 19, 20, 21, 22, 23, 24, 25, 26, 27, 28, 29, 30, 31, 32, 33, 34, 35, 36, 37, 38, 39, 40, 41, 42, 43, 44, 45, 46, 47, 48, 49, 50, 51, 52, 53, 54, 55, 56, 57, 58, 59, 60, 61, 62, 63, 64, 65, 66, 67, 68, 69, 70, 71, 72, 73, 74, 75, 76, 77, 78, 79, 80, 81, 82, 83, 84, 85, 86, 87, 88, 89, 90, 91, 92, 93, 94, 95, 96, 97, 98, 99, 100, 101, 102, 103, 104, 105, 106, 107, 108, 109, 110, 111, 112, 113, 114, 115, 116, 117, 118, 119, 120, 121, 122, 123, 124, 125, 126, 127, 128, 129, 130, 131, 132, 133, 134, 135, 136, 137, 138, 139, 140, 141, 142, 143, 144, 145, 146, 147, 148, 149, 150, 151, 152, 153, 154, 155, 156, 157, 158, 159, 160, 161, 162, 163, 164, 165, 166, 167, 168, 169, 170, 171, 172, 173, 174, 175, 176, 177, 178, 179, 180, 181, 182, 183, 184, 185, 186, 187, 188, 189, 190, 191, 192, 193, 194, 195, 196, 197, 198, 199, 200, 201, 202, 203, 204, 205, 206, 207, 208, 209, 210],
      "AcquisitionTime": ["095657.550000", "095659.557500", "095701.565000", "095703.572500", "095705.582500", "095707.590000", "095709.597500", "095711.605000", "095713.612500", "095715.622500", "095717.630000", "095719.637500", "095721.645000", "095723.655000", "095725.662500", "095727.670000", "095729.677500", "095731.685000", "095733.695000", "095735.702500", "095737.710000", "095739.717500", "095741.725000", "095743.735000", "095745.742500", "095747.750000", "095749.757500", "095751.767500", "095753.775000", "095755.782500", "095757.790000", "095759.797500", "095801.807500", "095803.815000", "095805.822500", "095807.830000", "095809.837500", "095811.847500", "095813.855000", "095815.862500", "095817.870000", "095819.880000", "095821.887500", "095823.895000", "095825.902500", "095827.910000", "095829.920000", "095831.927500", "095833.935000", "095835.942500", "095837.950000", "095839.960000", "095841.967500", "095843.975000", "095845.982500", "095847.990000", "095850.000000", "095852.007500", "095854.015000", "095856.022500", "095858.032500", "095900.040000", "095902.047500", "095904.055000", "095906.062500", "095908.072500", "095910.080000", "095912.087500", "095914.095000", "095916.102500", "095918.112500", "095920.120000", "095922.127500", "095924.135000", "095926.145000", "095928.152500", "095930.160000", "095932.167500", "095934.175000", "095936.185000", "095938.192500", "095940.200000", "095942.207500", "095944.215000", "095946.225000", "095948.232500", "095950.240000", "095952.247500", "095954.257500", "095956.265000", "095958.272500", "100000.280000", "100002.287500", "100004.297500", "100006.305000", "100008.312500", "100010.320000", "100012.327500", "100014.337500", "100016.345000", "100018.352500", "100020.360000", "100022.367500", "100024.377500", "100026.385000", "100028.392500", "100030.400000", "100032.410000", "100034.417500", "100036.425000", "100038.432500", "100040.440000", "100042.450000", "100044.457500", "100046.465000", "100048.472500", "100050.480000", "100052.490000", "100054.497500", "100056.505000", "100058.512500", "100100.522500", "100102.530000", "100104.537500", "100106.545000", "100108.552500", "100110.562500", "100112.570000", "100114.577500", "100116.585000", "100118.592500", "100120.602500", "100122.610000", "100124.617500", "100126.625000", "100128.635000", "100130.642500", "100132.650000", "100134.657500", "100136.665000", "100138.675000", "100140.682500", "100142.690000", "100144.697500", "100146.705000", "100148.715000", "100150.722500", "100152.730000", "100154.737500", "100156.747500", "100158.755000", "100200.762500", "100202.770000", "100204.777500", "100206.787500", "100208.795000", "100210.802500", "100212.810000", "100214.817500", "100216.827500", "100218.835000", "100220.842500", "100222.850000", "100224.857500", "100226.867500", "100228.875000", "100230.882500", "100232.890000", "100234.900000", "100236.907500", "100238.915000", "100240.922500", "100242.930000", "100244.940000", "100246.947500", "100248.955000", "100250.962500", "100252.970000", "100254.980000", "100256.987500", "100258.995000", "100301.002500", "100303.012500", "100305.020000", "100307.027500", "100309.035000", "100311.042500", "100313.052500", "100315.060000", "100317.067500", "100319.075000", "100321.082500", "100323.092500", "100325.100000", "100327.107500", "100329.115000", "100331.125000", "100333.132500", "100335.140000", "100337.147500", "100339.155000", "100341.165000", "100343.172500", "100345.180000", "100347.187500", "100349.195000", "100351.205000", "100353.212500", "100355.220000", "100357.227500"],
      "ContentTime": ["095701.078000", "095703.062000", "095705.062000", "095707.062000", "095709.062000", "095711.062000", "095713.062000", "095715.062000", "095717.062000", "095719.062000", "095721.062000", "095723.062000", "095725.062000", "095727.062000", "095729.062000", "095731.062000", "095733.062000", "095735.062000", "095737.062000", "095739.062000", "095741.062000", "095743.062000", "095745.062000", "095747.062000", "095749.062000", "095751.062000", "095753.062000", "095755.062000", "095757.062000", "095759.062000", "095801.062000", "095803.062000", "095805.062000", "095807.062000", "095809.062000", "095811.062000", "095813.062000", "095815.062000", "095817.062000", "095819.062000", "095821.062000", "095823.062000", "095825.062000", "095827.062000", "095829.062000", "095831.062000", "095833.062000", "095835.062000", "095837.062000", "095839.062000", "095841.062000", "095843.062000", "095845.062000", "095847.062000", "095849.062000", "095851.062000", "095853.062000", "095855.062000", "095857.062000", "095859.062000", "095901.062000", "095903.062000", "095905.062000", "095907.062000", "095909.062000", "095911.062000", "095913.062000", "095915.062000", "095917.062000", "095919.062000", "095921.062000", "095923.062000", "095925.062000", "095927.062000", "095929.062000", "095931.062000", "095933.062000", "095935.062000", "095937.062000", "095939.062000", "095941.062000", "095943.062000", "095945.062000", "095947.062000", "095949.062000", "095951.062000", "095953.062000", "095955.062000", "095957.062000", "095959.062000", "100001.062000", "100003.062000", "100005.062000", "100007.062000", "100009.062000", "100011.062000", "100013.062000", "100015.062000", "100017.062000", "100019.062000", "100021.062000", "100023.062000", "100025.062000", "100027.062000", "100029.062000", "100031.062000", "100033.062000", "100035.062000", "100037.062000", "100039.062000", "100041.062000", "100043.062000", "100045.062000", "100047.062000", "100049.562000", "100051.062000", "100053.062000", "100055.062000", "100057.562000", "100059.062000", "100101.062000", "100103.062000", "100105.062000", "100107.062000", "100109.062000", "100111.062000", "100113.062000", "100115.062000", "100117.062000", "100119.062000", "100121.062000", "100123.062000", "100125.062000", "100127.062000", "100129.062000", "100131.062000", "100133.062000", "100135.062000", "100137.062000", "100139.062000", "100141.062000", "100143.062000", "100145.062000", "100147.062000", "100149.062000", "100151.062000", "100153.062000", "100155.062000", "100157.062000", "100159.062000", "100201.062000", "100203.062000", "100205.062000", "100207.062000", "100209.062000", "100211.062000", "100213.062000", "100215.062000", "100217.062000", "100219.062000", "100221.062000", "100223.062000", "100225.062000", "100227.062000", "100229.062000", "100231.062000", "100233.062000", "100235.062000", "100237.062000", "100239.062000", "100241.062000", "100243.062000", "100245.062000", "100247.062000", "100249.062000", "100251.062000", "100253.062000", "100255.062000", "100257.062000", "100259.062000", "100301.062000", "100303.062000", "100305.062000", "100307.062000", "100309.062000", "100311.062000", "100313.062000", "100315.062000", "100317.062000", "100319.062000", "100321.062000", "100323.062000", "100325.062000", "100327.062000", "100329.062000", "100331.062000", "100333.062000", "100335.062000", "100337.062000", "100339.062000", "100341.062000", "100343.062000", "100345.062000", "100347.062000", "100349.062000", "100351.062000", "100353.062000", "100355.062000", "100357.562000", "100358.828000"],
      "InstanceCreationTime": ["095701.078000", "095703.062000", "095705.062000", "095707.062000", "095709.062000", "095711.062000", "095713.062000", "095715.062000", "095717.062000", "095719.062000", "095721.062000", "095723.062000", "095725.062000", "095727.062000", "095729.062000", "095731.062000", "095733.062000", "095735.062000", "095737.062000", "095739.062000", "095741.062000", "095743.062000", "095745.062000", "095747.062000", "095749.062000", "095751.062000", "095753.062000", "095755.062000", "095757.062000", "095759.062000", "095801.062000", "095803.062000", "095805.062000", "095807.062000", "095809.062000", "095811.062000", "095813.062000", "095815.062000", "095817.062000", "095819.062000", "095821.062000", "095823.062000", "095825.062000", "095827.062000", "095829.062000", "095831.062000", "095833.062000", "095835.062000", "095837.062000", "095839.062000", "095841.062000", "095843.062000", "095845.062000", "095847.062000", "095849.062000", "095851.062000", "095853.062000", "095855.062000", "095857.062000", "095859.062000", "095901.062000", "095903.062000", "095905.062000", "095907.062000", "095909.062000", "095911.062000", "095913.062000", "095915.062000", "095917.062000", "095919.062000", "095921.062000", "095923.062000", "095925.062000", "095927.062000", "095929.062000", "095931.062000", "095933.062000", "095935.062000", "095937.062000", "095939.062000", "095941.062000", "095943.062000", "095945.062000", "095947.062000", "095949.062000", "095951.062000", "095953.062000", "095955.062000", "095957.062000", "095959.062000", "100001.062000", "100003.062000", "100005.062000", "100007.062000", "100009.062000", "100011.062000", "100013.062000", "100015.062000", "100017.062000", "100019.062000", "100021.062000", "100023.062000", "100025.062000", "100027.062000", "100029.062000", "100031.062000", "100033.062000", "100035.062000", "100037.062000", "100039.062000", "100041.062000", "100043.062000", "100045.062000", "100047.062000", "100049.562000", "100051.062000", "100053.062000", "100055.062000", "100057.562000", "100059.062000", "100101.062000", "100103.062000", "100105.062000", "100107.062000", "100109.062000", "100111.062000", "100113.062000", "100115.062000", "100117.062000", "100119.062000", "100121.062000", "100123.062000", "100125.062000", "100127.062000", "100129.062000", "100131.062000", "100133.062000", "100135.062000", "100137.062000", "100139.062000", "100141.062000", "100143.062000", "100145.062000", "100147.062000", "100149.062000", "100151.062000", "100153.062000", "100155.062000", "100157.062000", "100159.062000", "100201.062000", "100203.062000", "100205.062000", "100207.062000", "100209.062000", "100211.062000", "100213.062000", "100215.062000", "100217.062000", "100219.062000", "100221.062000", "100223.062000", "100225.062000", "100227.062000", "100229.062000", "100231.062000", "100233.062000", "100235.062000", "100237.062000", "100239.062000", "100241.062000", "100243.062000", "100245.062000", "100247.062000", "100249.062000", "100251.062000", "100253.062000", "100255.062000", "100257.062000", "100259.062000", "100301.062000", "100303.062000", "100305.062000", "100307.062000", "100309.062000", "100311.062000", "100313.062000", "100315.062000", "100317.062000", "100319.062000", "100321.062000", "100323.062000", "100325.062000", "100327.062000", "100329.062000", "100331.062000", "100333.062000", "100335.062000", "100337.062000", "100339.062000", "100341.062000", "100343.062000", "100345.062000", "100347.062000", "100349.062000", "100351.062000", "100353.062000", "100355.062000", "100357.562000", "100358.828000"],
      "InstanceNumber": [1, 2, 3, 4, 5, 6, 7, 8, 9, 10, 11, 12, 13, 14, 15, 16, 17, 18, 19, 20, 21, 22, 23, 24, 25, 26, 27, 28, 29, 30, 31, 32, 33, 34, 35, 36, 37, 38, 39, 40, 41, 42, 43, 44, 45, 46, 47, 48, 49, 50, 51, 52, 53, 54, 55, 56, 57, 58, 59, 60, 61, 62, 63, 64, 65, 66, 67, 68, 69, 70, 71, 72, 73, 74, 75, 76, 77, 78, 79, 80, 81, 82, 83, 84, 85, 86, 87, 88, 89, 90, 91, 92, 93, 94, 95, 96, 97, 98, 99, 100, 101, 102, 103, 104, 105, 106, 107, 108, 109, 110, 111, 112, 113, 114, 115, 116, 117, 118, 119, 120, 121, 122, 123, 124, 125, 126, 127, 128, 129, 130, 131, 132, 133, 134, 135, 136, 137, 138, 139, 140, 141, 142, 143, 144, 145, 146, 147, 148, 149, 150, 151, 152, 153, 154, 155, 156, 157, 158, 159, 160, 161, 162, 163, 164, 165, 166, 167, 168, 169, 170, 171, 172, 173, 174, 175, 176, 177, 178, 179, 180, 181, 182, 183, 184, 185, 186, 187, 188, 189, 190, 191, 192, 193, 194, 195, 196, 197, 198, 199, 200, 201, 202, 203, 204, 205, 206, 207, 208, 209, 210],
      "LargestImagePixelValue": [2118, 2024, 1980, 1969, 1962, 1971, 1960, 1962, 1953, 1940, 1921, 1957, 1925, 1941, 1929, 1943, 1947, 1950, 1949, 1931, 1948, 1932, 1942, 1940, 1947, 1942, 1942, 1970, 1917, 1957, 1941, 1942, 1940, 1940, 1942, 1953, 1937, 1941, 1940, 1948, 1967, 1937, 1956, 1958, 1954, 1951, 1950, 1956, 1928, 1953, 1934, 1924, 1964, 1940, 1948, 1943, 1937, 1949, 1958, 1952, 1950, 1954, 1972, 1970, 1974, 1949, 1960, 1981, 1963, 1977, 1967, 1966, 1975, 1949, 1963, 1968, 1952, 1968, 1972, 1951, 1973, 1963, 1965, 1959, 1953, 1961, 1946, 1961, 1974, 1976, 1952, 1974, 1974, 1963, 1965, 1960, 1960, 1969, 1949, 1970, 1966, 1968, 1963, 1983, 1992, 1963, 1977, 1977, 1963, 1968, 1969, 1976, 1967, 1959, 1979, 1953, 1953, 1979, 1965, 1966, 1960, 1969, 1971, 1966, 1958, 1970, 1970, 1972, 1972, 1974, 1968, 1979, 1969, 1966, 1968, 1971, 1977, 1973, 1965, 1982, 1965, 1967, 1968, 1954, 1984, 1970, 1983, 1981, 1978, 1978, 1976, 1977, 1976, 1963, 1990, 1977, 1976, 1973, 1969, 1983, 1995, 1987, 1998, 1982, 1989, 1983, 1977, 1995, 1987, 1971, 1985, 1991, 1978, 1992, 1984, 1987, 1992, 1994, 1997, 1985, 1991, 1991, 1985, 1985, 1991, 1988, 1980, 1985, 1986, 1993, 1977, 1981, 2009, 1991, 1974, 2000, 2005, 1990, 1991, 2000, 2001, 1983, 1965, 2015, 1994, 1997, 2009, 1990, 1987, 2011],
      "WindowCenter": [743.0, 741.0, 740.0, 740.0, 740.0, 740.0, 739.0, 740.0, 739.0, 739.0, 739.0, 740.0, 740.0, 740.0, 740.0, 740.0, 740.0, 741.0, 742.0, 741.0, 742.0, 741.0, 741.0, 740.0, 740.0, 739.0, 738.0, 738.0, 738.0, 738.0, 739.0, 738.0, 738.0, 738.0, 738.0, 739.0, 740.0, 739.0, 739.0, 739.0, 740.0, 740.0, 741.0, 741.0, 741.0, 741.0, 742.0, 742.0, 741.0, 740.0, 740.0, 742.0, 743.0, 742.0, 743.0, 743.0, 743.0, 744.0, 744.0, 743.0, 743.0, 743.0, 743.0, 742.0, 741.0, 740.0, 740.0, 740.0, 739.0, 739.0, 739.0, 739.0, 739.0, 739.0, 739.0, 740.0, 741.0, 741.0, 742.0, 742.0, 743.0, 744.0, 743.0, 743.0, 743.0, 743.0, 743.0, 742.0, 741.0, 742.0, 742.0, 742.0, 742.0, 744.0, 743.0, 742.0, 741.0, 741.0, 740.0, 740.0, 740.0, 740.0, 740.0, 741.0, 741.0, 741.0, 741.0, 742.0, 742.0, 743.0, 743.0, 742.0, 742.0, 743.0, 743.0, 743.0, 743.0, 744.0, 745.0, 745.0, 745.0, 744.0, 743.0, 743.0, 742.0, 742.0, 742.0, 742.0, 743.0, 743.0, 742.0, 742.0, 742.0, 742.0, 742.0, 742.0, 742.0, 741.0, 742.0, 742.0, 742.0, 742.0, 742.0, 742.0, 742.0, 742.0, 741.0, 741.0, 741.0, 741.0, 741.0, 742.0, 742.0, 742.0, 743.0, 742.0, 742.0, 742.0, 742.0, 742.0, 743.0, 743.0, 744.0, 744.0, 743.0, 743.0, 743.0, 743.0, 742.0, 742.0, 742.0, 742.0, 742.0, 742.0, 743.0, 744.0, 744.0, 743.0, 742.0, 743.0, 743.0, 743.0, 742.0, 742.0, 742.0, 742.0, 743.0, 743.0, 743.0, 744.0, 745.0, 744.0, 744.0, 743.0, 743.0, 743.0, 743.0, 742.0, 743.0, 743.0, 744.0, 743.0, 744.0, 744.0, 743.0, 743.0, 742.0, 740.0, 739.0, 740.0],
      "WindowWidth": [1579.0, 1574.0, 1572.0, 1571.0, 1572.0, 1572.0, 1569.0, 1570.0, 1568.0, 1567.0, 1568.0, 1570.0, 1571.0, 1571.0, 1571.0, 1571.0, 1572.0, 1574.0, 1575.0, 1574.0, 1574.0, 1574.0, 1573.0, 1572.0, 1569.0, 1568.0, 1565.0, 1566.0, 1564.0, 1566.0, 1568.0, 1566.0, 1565.0, 1565.0, 1566.0, 1568.0, 1569.0, 1569.0, 1567.0, 1568.0, 1570.0, 1572.0, 1572.0, 1572.0, 1573.0, 1573.0, 1574.0, 1575.0, 1572.0, 1571.0, 1572.0, 1575.0, 1578.0, 1576.0, 1577.0, 1578.0, 1578.0, 1580.0, 1582.0, 1579.0, 1578.0, 1577.0, 1577.0, 1576.0, 1573.0, 1571.0, 1570.0, 1570.0, 1569.0, 1569.0, 1567.0, 1567.0, 1568.0, 1568.0, 1569.0, 1571.0, 1573.0, 1574.0, 1575.0, 1577.0, 1579.0, 1580.0, 1579.0, 1577.0, 1579.0, 1579.0, 1577.0, 1575.0, 1574.0, 1575.0, 1574.0, 1576.0, 1577.0, 1580.0, 1578.0, 1575.0, 1573.0, 1572.0, 1571.0, 1571.0, 1570.0, 1569.0, 1571.0, 1572.0, 1573.0, 1573.0, 1574.0, 1575.0, 1576.0, 1577.0, 1578.0, 1577.0, 1576.0, 1578.0, 1579.0, 1579.0, 1579.0, 1580.0, 1584.0, 1584.0, 1582.0, 1580.0, 1578.0, 1577.0, 1575.0, 1574.0, 1575.0, 1576.0, 1577.0, 1578.0, 1576.0, 1577.0, 1576.0, 1576.0, 1576.0, 1576.0, 1575.0, 1574.0, 1574.0, 1576.0, 1576.0, 1575.0, 1575.0, 1576.0, 1576.0, 1575.0, 1573.0, 1573.0, 1572.0, 1572.0, 1574.0, 1575.0, 1576.0, 1576.0, 1578.0, 1577.0, 1576.0, 1576.0, 1575.0, 1576.0, 1578.0, 1579.0, 1581.0, 1581.0, 1578.0, 1578.0, 1579.0, 1577.0, 1576.0, 1577.0, 1576.0, 1576.0, 1575.0, 1575.0, 1578.0, 1579.0, 1580.0, 1578.0, 1576.0, 1578.0, 1578.0, 1577.0, 1576.0, 1576.0, 1576.0, 1576.0, 1577.0, 1577.0, 1578.0, 1581.0, 1583.0, 1581.0, 1579.0, 1577.0, 1577.0, 1579.0, 1578.0, 1577.0, 1578.0, 1578.0, 1580.0, 1579.0, 1580.0, 1581.0, 1579.0, 1578.0, 1576.0, 1571.0, 1568.0, 1571.0]
    },
    "slices": {}
  }
}