{
  "AcquisitionMatrixPE": 64,
  "AcquisitionNumber": 1,
  "AcquisitionTime": "10:34:57.647500",
  "BandwidthPerPixelPhaseEncode": 30.637,
  "BaseResolution": 64,
  "BidsGuess": [
    "func",
    "_acq-epfid2_dir-AP_run-9_bold"
],
  "CoilCombinationMethod": "Sum of Squares",
  "CoilString": "C:HEA;HEP",
  "ConversionSoftware": "dcm2niix",
  "ConversionSoftwareVersion": "v1.0.20240202",
  "DerivedVendorReportedEchoSpacing": 0.000510004,
  "DeviceSerialNumber": "35119",
  "DwellTime": 3.5e-06,
  "EchoTime": 0.03,
  "EffectiveEchoSpacing": 0.000510004,
  "FlipAngle": 78,
  "HeudiconvVersion": "1.1.6",
  "ImageComments": "V",
  "ImageOrientationPatientDICOM": [0.998299, 0.013034, 0.056827, 0, 0.974691, -0.223556],
  "ImageOrientationText": "Tra>Cor(-12.9)>Sag(3.3)",
  "ImageType": [
    "ORIGINAL",
    "PRIMARY",
    "M",
    "ND",
    "MOSAIC"
],
  "ImagingFrequency": 123.251949,
  "InPlanePhaseEncodingDirectionDICOM": "COL",
  "InstitutionAddress": "Chaucer Road  15,Cambridge,UK,GB,CB2 2EF",
  "InstitutionName": "MRC-CBU",
  "MRAcquisitionType": "2D",
  "MagneticFieldStrength": 3,
  "Manufacturer": "Siemens",
  "ManufacturersModelName": "TrioTim",
  "MatrixCoilMode": "SENSE",
  "Modality": "MR",
  "NonlinearGradientCorrection": false,
  "PartialFourier": 1,
  "PatientPosition": "HFS",
  "PercentPhaseFOV": 100,
  "PercentSampling": 100,
  "PhaseEncodingDirection": "j-",
  "PhaseEncodingSteps": 64,
  "PhaseResolution": 1,
  "PixelBandwidth": 2230,
  "ProcedureStepDescription": "CBU^Neuroimaging",
  "ProtocolName": "CBU_DWEPI_BOLD210",
  "PulseSequenceDetails": "%SiemensSeq%\\ep2d_bold",
  "ReceiveCoilName": "HeadMatrix",
  "ReconMatrixPE": 64,
  "RepetitionTime": 2,
  "SAR": 0.122885,
  "ScanOptions": "FS",
  "ScanningSequence": "EP",
  "SequenceName": "*epfid2d1_64",
  "SequenceVariant": "SK",
  "SeriesDescription": "CBU_DWEPI_BOLD210",
  "SeriesNumber": 9,
  "ShimSetting": [-7762, -8717, -2302, 927, 347, 526, 435, -106],
  "SliceThickness": 3,
  "SliceTiming": [0, 1.035, 0.06, 1.095, 0.1225, 1.155, 0.1825, 1.2175, 0.2425, 1.2775, 0.305, 1.3375, 0.365, 1.4, 0.425, 1.46, 0.4875, 1.52, 0.5475, 1.5825, 0.6075, 1.6425, 0.67, 1.7025, 0.73, 1.765, 0.79, 1.825, 0.8525, 1.885, 0.9125, 1.9475, 0.9725],
  "SoftwareVersions": "syngo MR B15",
  "SpacingBetweenSlices": 3.9,
  "StationName": "MRC35119",
  "TaskName": "faceprocessing",
  "TotalReadoutTime": 0.0321303,
  "TxRefAmp": 318.558,
  "dcmmeta_affine": [
    [-2.99489688873291, 0.0, 0.22738011181354523, 96.9637222290039],
    [-0.03910199925303459, 2.9240729808807373, -0.8703853487968445, -67.60459899902344],
    [0.17048099637031555, 0.6706680059432983, 3.7948288917541504, -64.70323944091797],
    [0.0, 0.0, 0.0, 1.0]
],
  "dcmmeta_reorient_transform": [
    [0.0, -1.0, 0.0, 63.0],
    [1.0, 0.0, 0.0, 0.0],
    [0.0, 0.0, 1.0, 0.0],
    [0.0, 0.0, 0.0, 1.0]
],
  "dcmmeta_shape": [64, 64, 33, 210],
  "dcmmeta_slice_dim": 2,
  "dcmmeta_version": 0.6,
  "global": {
    "const": {
      "AcquisitionMatrix": [64, 0, 0, 64],
      "AngioFlag": "N",
      "BitsAllocated": 16,
      "BitsStored": 12,
      "Columns": 384,
      "EchoNumbers": 1,
      "EchoTime": 30.0,
      "EchoTrainLength": 1,
      "FlipAngle": 78.0,
      "HighBit": 11,
      "ImageOrientationPatient": [0.998299, 0.013034, 0.056827, 0.0, 0.974691, -0.223556],
      "ImagePositionPatient": [-576.147246, -590.719998, 57.578768],
      "ImageType": [
        "ORIGINAL",
        "PRIMARY",
        "M",
        "ND",
        "MOSAIC"
],
      "ImagedNucleus": "1H",
      "ImagingFrequency": 123.251949,
      "InPlanePhaseEncodingDirection": "COL",
      "MRAcquisitionType": "2D",
      "MagneticFieldStrength": 3.0,
      "Manufacturer": "SIEMENS",
      "ManufacturerModelName": "TrioTim",
      "Modality": "MR",
      "NumberOfAverages": 1.0,
      "NumberOfPhaseEncodingSteps": 64,
      "PercentPhaseFieldOfView": 100.0,
      "PercentSampling": 100.0,
      "PerformedProcedureStepStartTime": "093853.812000",
      "PhotometricInterpretation": "MONOCHROME2",
      "PixelAspectRatio": [1, 1],
      "PixelBandwidth": 2230.0,
      "PixelRepresentation": 0,
      "PixelSpacing": [3.0, 3.0],
      "ProtocolName": "CBU_DWEPI_BOLD210",
      "RepetitionTime": 2000.0,
      "Rows": 384,
      "SAR": 0.122885,
      "SamplesPerPixel": 1,
      "ScanOptions": "FS",
      "ScanningSequence": "EP",
      "SequenceName": "*epfid2d1_64",
      "SequenceVariant": "SK",
      "SeriesDescription": "CBU_DWEPI_BOLD210",
      "SeriesNumber": 9,
      "SeriesTime": "103501.312000",
      "SliceLocation": -42.217141,
      "SliceThickness": 3.0,
      "SmallestImagePixelValue": 0,
      "SoftwareVersions": "syngo MR B15",
      "SpacingBetweenSlices": 3.9,
      "SpecificCharacterSet": "ISO_IR 100",
      "StudyID": "1",
      "StudyTime": "093853.750000",
      "TransmitCoilName": "Body",
      "VariableFlipAngleFlag": "N",
      "WindowCenterWidthExplanation": "Algo1",
      "dBdt": 0.0},
    "slices": {}
  },
  "time": {
    "samples": {
      "AcquisitionNumber": [1, 2, 3, 4, 5, 6, 7, 8, 9, 10, 11, 12, 13, 14, 15, 16, 17, 18, 19, 20, 21, 22, 23, 24, 25, 26, 27, 28, 29, 30, 31, 32, 33, 34, 35, 36, 37, 38, 39, 40, 41, 42, 43, 44, 45, 46, 47, 48, 49, 50, 51, 52, 53, 54, 55, 56, 57, 58, 59, 60, 61, 62, 63, 64, 65, 66, 67, 68, 69, 70, 71, 72, 73, 74, 75, 76, 77, 78, 79, 80, 81, 82, 83, 84, 85, 86, 87, 88, 89, 90, 91, 92, 93, 94, 95, 96, 97, 98, 99, 100, 101, 102, 103, 104, 105, 106, 107, 108, 109, 110, 111, 112, 113, 114, 115, 116, 117, 118, 119, 120, 121, 122, 123, 124, 125, 126, 127, 128, 129, 130, 131, 132, 133, 134, 135, 136, 137, 138, 139, 140, 141, 142, 143, 144, 145, 146, 147, 148, 149, 150, 151, 152, 153, 154, 155, 156, 157, 158, 159, 160, 161, 162, 163, 164, 165, 166, 167, 168, 169, 170, 171, 172, 173, 174, 175, 176, 177, 178, 179, 180, 181, 182, 183, 184, 185, 186, 187, 188, 189, 190, 191, 192, 193, 194, 195, 196, 197, 198, 199, 200, 201, 202, 203, 204, 205, 206, 207, 208, 209, 210],
      "AcquisitionTime": ["103457.647500", "103459.655000", "103501.665000", "103503.672500", "103505.680000", "103507.687500", "103509.695000", "103511.705000", "103513.712500", "103515.720000", "103517.727500", "103519.735000", "103521.745000", "103523.752500", "103525.760000", "103527.767500", "103529.777500", "103531.785000", "103533.792500", "103535.800000", "103537.807500", "103539.817500", "103541.825000", "103543.832500", "103545.840000", "103547.847500", "103549.857500", "103551.865000", "103553.872500", "103555.880000", "103557.890000", "103559.897500", "103601.905000", "103603.912500", "103605.920000", "103607.930000", "103609.937500", "103611.945000", "103613.952500", "103615.960000", "103617.970000", "103619.977500", "103621.985000", "103623.992500", "103626.002500", "103628.010000", "103630.017500", "103632.025000", "103634.032500", "103636.042500", "103638.050000", "103640.057500", "103642.065000", "103644.072500", "103646.082500", "103648.090000", "103650.097500", "103652.105000", "103654.112500", "103656.122500", "103658.130000", "103700.137500", "103702.145000", "103704.155000", "103706.162500", "103708.170000", "103710.177500", "103712.185000", "103714.195000", "103716.202500", "103718.210000", "103720.217500", "103722.225000", "103724.235000", "103726.242500", "103728.250000", "103730.257500", "103732.267500", "103734.275000", "103736.282500", "103738.290000", "103740.297500", "103742.307500", "103744.315000", "103746.322500", "103748.330000", "103750.337500", "103752.347500", "103754.355000", "103756.362500", "103758.370000", "103800.380000", "103802.387500", "103804.395000", "103806.402500", "103808.410000", "103810.420000", "103812.427500", "103814.435000", "103816.442500", "103818.450000", "103820.460000", "103822.467500", "103824.475000", "103826.482500", "103828.492500", "103830.500000", "103832.507500", "103834.515000", "103836.522500", "103838.532500", "103840.540000", "103842.547500", "103844.555000", "103846.562500", "103848.572500", "103850.580000", "103852.587500", "103854.595000", "103856.602500", "103858.612500", "103900.620000", "103902.627500", "103904.635000", "103906.645000", "103908.652500", "103910.660000", "103912.667500", "103914.675000", "103916.685000", "103918.692500", "103920.700000", "103922.707500", "103924.715000", "103926.725000", "103928.732500", "103930.740000", "103932.747500", "103934.757500", "103936.765000", "103938.772500", "103940.780000", "103942.787500", "103944.797500", "103946.805000", "103948.812500", "103950.820000", "103952.827500", "103954.837500", "103956.845000", "103958.852500", "104000.860000", "104002.870000", "104004.877500", "104006.885000", "104008.892500", "104010.900000", "104012.910000", "104014.917500", "104016.925000", "104018.932500", "104020.940000", "104022.950000", "104024.957500", "104026.965000", "104028.972500", "104030.980000", "104032.990000", "104034.997500", "104037.005000", "104039.012500", "104041.022500", "104043.030000", "104045.037500", "104047.045000", "104049.052500", "104051.062500", "104053.070000", "104055.077500", "104057.085000", "104059.092500", "104101.102500", "104103.110000", "104105.117500", "104107.125000", "104109.135000", "104111.142500", "104113.150000", "104115.157500", "104117.165000", "104119.175000", "104121.182500", "104123.190000", "104125.197500", "104127.205000", "104129.215000", "104131.222500", "104133.230000", "104135.237500", "104137.247500", "104139.255000", "104141.262500", "104143.270000", "104145.277500", "104147.287500", "104149.295000", "104151.302500", "104153.310000", "104155.317500", "104157.327500"],
      "ContentTime": ["103501.328000", "103503.296000", "103505.296000", "103507.296000", "103509.296000", "103511.296000", "103513.296000", "103515.296000", "103517.296000", "103519.796000", "103521.296000", "103523.296000", "103525.296000", "103527.296000", "103529.296000", "103531.296000", "103533.296000", "103535.296000", "103537.296000", "103539.296000", "103541.296000", "103543.296000", "103545.296000", "103547.296000", "103549.296000", "103551.296000", "103553.296000", "103555.296000", "103557.296000", "103559.296000", "103601.296000", "103603.296000", "103605.296000", "103607.296000", "103609.296000", "103611.296000", "103613.296000", "103615.296000", "103617.296000", "103619.296000", "103621.296000", "103623.296000", "103625.296000", "103627.296000", "103629.296000", "103631.296000", "103633.296000", "103635.296000", "103637.296000", "103639.296000", "103641.296000", "103643.296000", "103645.296000", "103647.296000", "103649.296000", "103651.296000", "103653.296000", "103655.296000", "103657.296000", "103659.296000", "103701.296000", "103703.296000", "103705.296000", "103707.296000", "103709.296000", "103711.296000", "103713.296000", "103715.296000", "103717.296000", "103719.296000", "103721.296000", "103723.296000", "103725.296000", "103727.296000", "103729.296000", "103731.296000", "103733.296000", "103735.296000", "103737.296000", "103739.296000", "103741.296000", "103743.296000", "103745.296000", "103747.296000", "103749.296000", "103751.296000", "103753.296000", "103755.296000", "103757.296000", "103759.296000", "103801.296000", "103803.296000", "103805.296000", "103807.296000", "103809.296000", "103811.296000", "103813.296000", "103815.296000", "103817.296000", "103819.296000", "103821.296000", "103823.296000", "103825.296000", "103827.296000", "103829.296000", "103831.296000", "103833.296000", "103835.296000", "103837.296000", "103839.296000", "103841.296000", "103843.296000", "103845.296000", "103847.296000", "103849.296000", "103851.296000", "103853.296000", "103855.296000", "103857.296000", "103859.296000", "103901.296000", "103903.296000", "103905.296000", "103907.296000", "103909.296000", "103911.296000", "103913.296000", "103915.296000", "103917.296000", "103919.296000", "103921.296000", "103923.296000", "103925.296000", "103927.296000", "103929.296000", "103931.296000", "103933.296000", "103935.296000", "103937.296000", "103939.296000", "103941.296000", "103943.296000", "103945.296000", "103947.296000", "103949.296000", "103951.296000", "103953.296000", "103955.296000", "103957.296000", "103959.296000", "104001.296000", "104003.296000", "104005.296000", "104007.296000", "104009.296000", "104011.296000", "104013.296000", "104015.296000", "104017.296000", "104019.296000", "104021.296000", "104023.296000", "104025.296000", "104027.296000", "104029.296000", "104031.296000", "104033.296000", "104035.296000", "104037.296000", "104039.296000", "104041.296000", "104043.296000", "104045.296000", "104047.296000", "104049.296000", "104051.296000", "104053.296000", "104055.296000", "104057.296000", "104059.296000", "104101.296000", "104103.296000", "104105.296000", "104107.296000", "104109.296000", "104111.296000", "104113.296000", "104115.296000", "104117.296000", "104119.296000", "104121.296000", "104123.296000", "104125.296000", "104127.296000", "104129.296000", "104131.296000", "104133.296000", "104135.296000", "104137.296000", "104139.296000", "104141.296000", "104143.296000", "104145.296000", "104147.296000", "104149.296000", "104151.296000", "104153.296000", "104155.296000", "104157.296000", "104159.234000"],
      "InstanceCreationTime": ["103501.328000", "103503.296000", "103505.296000", "103507.296000", "103509.296000", "103511.296000", "103513.296000", "103515.296000", "103517.296000", "103519.796000", "103521.296000", "103523.296000", "103525.296000", "103527.296000", "103529.296000", "103531.296000", "103533.296000", "103535.296000", "103537.296000", "103539.296000", "103541.296000", "103543.296000", "103545.296000", "103547.296000", "103549.296000", "103551.296000", "103553.296000", "103555.296000", "103557.296000", "103559.296000", "103601.296000", "103603.296000", "103605.296000", "103607.296000", "103609.296000", "103611.296000", "103613.296000", "103615.296000", "103617.296000", "103619.296000", "103621.296000", "103623.296000", "103625.296000", "103627.296000", "103629.296000", "103631.296000", "103633.296000", "103635.296000", "103637.296000", "103639.296000", "103641.296000", "103643.296000", "103645.296000", "103647.296000", "103649.296000", "103651.296000", "103653.296000", "103655.296000", "103657.296000", "103659.296000", "103701.296000", "103703.296000", "103705.296000", "103707.296000", "103709.296000", "103711.296000", "103713.296000", "103715.296000", "103717.296000", "103719.296000", "103721.296000", "103723.296000", "103725.296000", "103727.296000", "103729.296000", "103731.296000", "103733.296000", "103735.296000", "103737.296000", "103739.296000", "103741.296000", "103743.296000", "103745.296000", "103747.296000", "103749.296000", "103751.296000", "103753.296000", "103755.296000", "103757.296000", "103759.296000", "103801.296000", "103803.296000", "103805.296000", "103807.296000", "103809.296000", "103811.296000", "103813.296000", "103815.296000", "103817.296000", "103819.296000", "103821.296000", "103823.296000", "103825.296000", "103827.296000", "103829.296000", "103831.296000", "103833.296000", "103835.296000", "103837.296000", "103839.296000", "103841.296000", "103843.296000", "103845.296000", "103847.296000", "103849.296000", "103851.296000", "103853.296000", "103855.296000", "103857.296000", "103859.296000", "103901.296000", "103903.296000", "103905.296000", "103907.296000", "103909.296000", "103911.296000", "103913.296000", "103915.296000", "103917.296000", "103919.296000", "103921.296000", "103923.296000", "103925.296000", "103927.296000", "103929.296000", "103931.296000", "103933.296000", "103935.296000", "103937.296000", "103939.296000", "103941.296000", "103943.296000", "103945.296000", "103947.296000", "103949.296000", "103951.296000", "103953.296000", "103955.296000", "103957.296000", "103959.296000", "104001.296000", "104003.296000", "104005.296000", "104007.296000", "104009.296000", "104011.296000", "104013.296000", "104015.296000", "104017.296000", "104019.296000", "104021.296000", "104023.296000", "104025.296000", "104027.296000", "104029.296000", "104031.296000", "104033.296000", "104035.296000", "104037.296000", "104039.296000", "104041.296000", "104043.296000", "104045.296000", "104047.296000", "104049.296000", "104051.296000", "104053.296000", "104055.296000", "104057.296000", "104059.296000", "104101.296000", "104103.296000", "104105.296000", "104107.296000", "104109.296000", "104111.296000", "104113.296000", "104115.296000", "104117.296000", "104119.296000", "104121.296000", "104123.296000", "104125.296000", "104127.296000", "104129.296000", "104131.296000", "104133.296000", "104135.296000", "104137.296000", "104139.296000", "104141.296000", "104143.296000", "104145.296000", "104147.296000", "104149.296000", "104151.296000", "104153.296000", "104155.296000", "104157.296000", "104159.234000"],
      "InstanceNumber": [1, 2, 3, 4, 5, 6, 7, 8, 9, 10, 11, 12, 13, 14, 15, 16, 17, 18, 19, 20, 21, 22, 23, 24, 25, 26, 27, 28, 29, 30, 31, 32, 33, 34, 35, 36, 37, 38, 39, 40, 41, 42, 43, 44, 45, 46, 47, 48, 49, 50, 51, 52, 53, 54, 55, 56, 57, 58, 59, 60, 61, 62, 63, 64, 65, 66, 67, 68, 69, 70, 71, 72, 73, 74, 75, 76, 77, 78, 79, 80, 81, 82, 83, 84, 85, 86, 87, 88, 89, 90, 91, 92, 93, 94, 95, 96, 97, 98, 99, 100, 101, 102, 103, 104, 105, 106, 107, 108, 109, 110, 111, 112, 113, 114, 115, 116, 117, 118, 119, 120, 121, 122, 123, 124, 125, 126, 127, 128, 129, 130, 131, 132, 133, 134, 135, 136, 137, 138, 139, 140, 141, 142, 143, 144, 145, 146, 147, 148, 149, 150, 151, 152, 153, 154, 155, 156, 157, 158, 159, 160, 161, 162, 163, 164, 165, 166, 167, 168, 169, 170, 171, 172, 173, 174, 175, 176, 177, 178, 179, 180, 181, 182, 183, 184, 185, 186, 187, 188, 189, 190, 191, 192, 193, 194, 195, 196, 197, 198, 199, 200, 201, 202, 203, 204, 205, 206, 207, 208, 209, 210],
      "LargestImagePixelValue": [2126, 2066, 2020, 2020, 2001, 2023, 1996, 2019, 2028, 2039, 2041, 2029, 2029, 2002, 2021, 2004, 2027, 2024, 2018, 2007, 2023, 2016, 1991, 2019, 2003, 2005, 2016, 2030, 2018, 2012, 2024, 2009, 2022, 2035, 2009, 2015, 2027, 2009, 2015, 2000, 1998, 2031, 2011, 2041, 2038, 2033, 2014, 2028, 2035, 2047, 2039, 2040, 2034, 2040, 2008, 2030, 1997, 2035, 2018, 2029, 2018, 2009, 2001, 2034, 2005, 2025, 2016, 2003, 2016, 2026, 2022, 2032, 2024, 2027, 2026, 2024, 2018, 2044, 2033, 2030, 2055, 2028, 2042, 2016, 2006, 2042, 2045, 2032, 2021, 2035, 2050, 2031, 2014, 2033, 2035, 2049, 2032, 2048, 2023, 2017, 2022, 2028, 2048, 2023, 2031, 2036, 2037, 2024, 2046, 2048, 2045, 2027, 2027, 2054, 2016, 2036, 2039, 2017, 1998, 2010, 2001, 2035, 2039, 2029, 2015, 2031, 2017, 2032, 2034, 2033, 2033, 2069, 2028, 2026, 2013, 2027, 2034, 2036, 2040, 2058, 2057, 2051, 2045, 2025, 2047, 2026, 2046, 2032, 2044, 2040, 2030, 2052, 2036, 2054, 2034, 2043, 2043, 2031, 2045, 2055, 2012, 2052, 2035, 2042, 2020, 2049, 2000, 2020, 1990, 2055, 2023, 2021, 2024, 2045, 2055, 2063, 2079, 2047, 2061, 2038, 2064, 2036, 2027, 2020, 2054, 2040, 2019, 2025, 2055, 2027, 2050, 2069, 2045, 2045, 2062, 2045, 2038, 2042, 2046, 2025, 2047, 2048, 2038, 2055, 2027, 2047, 2024, 2054, 2019, 2024],
      "WindowCenter": [753.0, 749.0, 748.0, 748.0, 749.0, 751.0, 751.0, 752.0, 753.0, 754.0, 756.0, 756.0, 756.0, 755.0, 754.0, 752.0, 752.0, 750.0, 750.0, 749.0, 749.0, 750.0, 750.0, 749.0, 749.0, 748.0, 748.0, 749.0, 748.0, 749.0, 752.0, 752.0, 751.0, 751.0, 751.0, 750.0, 748.0, 747.0, 747.0, 748.0, 749.0, 750.0, 752.0, 752.0, 753.0, 753.0, 755.0, 754.0, 755.0, 755.0, 754.0, 753.0, 751.0, 750.0, 749.0, 749.0, 749.0, 749.0, 751.0, 750.0, 751.0, 752.0, 752.0, 752.0, 750.0, 751.0, 750.0, 750.0, 750.0, 751.0, 751.0, 751.0, 751.0, 751.0, 750.0, 751.0, 750.0, 749.0, 749.0, 750.0, 752.0, 752.0, 751.0, 751.0, 750.0, 750.0, 750.0, 750.0, 750.0, 751.0, 752.0, 752.0, 752.0, 752.0, 752.0, 752.0, 751.0, 751.0, 752.0, 752.0, 752.0, 752.0, 754.0, 753.0, 753.0, 753.0, 755.0, 754.0, 754.0, 752.0, 751.0, 751.0, 750.0, 750.0, 751.0, 751.0, 751.0, 751.0, 751.0, 750.0, 749.0, 749.0, 748.0, 749.0, 750.0, 751.0, 752.0, 753.0, 752.0, 752.0, 752.0, 751.0, 749.0, 747.0, 747.0, 749.0, 751.0, 752.0, 753.0, 754.0, 753.0, 753.0, 753.0, 752.0, 752.0, 752.0, 753.0, 753.0, 753.0, 754.0, 755.0, 755.0, 754.0, 754.0, 753.0, 751.0, 751.0, 750.0, 751.0, 752.0, 752.0, 752.0, 751.0, 750.0, 750.0, 751.0, 751.0, 750.0, 750.0, 750.0, 751.0, 751.0, 752.0, 753.0, 752.0, 751.0, 752.0, 751.0, 753.0, 754.0, 755.0, 754.0, 753.0, 753.0, 752.0, 751.0, 752.0, 752.0, 751.0, 751.0, 754.0, 755.0, 756.0, 755.0, 754.0, 752.0, 750.0, 750.0, 749.0, 750.0, 751.0, 752.0, 754.0, 754.0, 753.0, 753.0, 752.0, 752.0, 753.0, 755.0],
      "WindowWidth": [1602.0, 1594.0, 1591.0, 1591.0, 1595.0, 1599.0, 1600.0, 1601.0, 1605.0, 1606.0, 1611.0, 1611.0, 1613.0, 1610.0, 1607.0, 1602.0, 1600.0, 1597.0, 1597.0, 1594.0, 1594.0, 1595.0, 1595.0, 1594.0, 1593.0, 1591.0, 1592.0, 1593.0, 1592.0, 1594.0, 1601.0, 1600.0, 1598.0, 1598.0, 1599.0, 1595.0, 1591.0, 1588.0, 1589.0, 1590.0, 1593.0, 1598.0, 1601.0, 1603.0, 1605.0, 1605.0, 1608.0, 1608.0, 1610.0, 1609.0, 1606.0, 1603.0, 1600.0, 1597.0, 1594.0, 1594.0, 1594.0, 1595.0, 1598.0, 1597.0, 1599.0, 1603.0, 1602.0, 1601.0, 1598.0, 1598.0, 1598.0, 1598.0, 1598.0, 1600.0, 1600.0, 1600.0, 1599.0, 1598.0, 1597.0, 1599.0, 1595.0, 1593.0, 1593.0, 1596.0, 1601.0, 1601.0, 1600.0, 1598.0, 1595.0, 1596.0, 1595.0, 1597.0, 1598.0, 1599.0, 1601.0, 1602.0, 1602.0, 1602.0, 1602.0, 1601.0, 1600.0, 1599.0, 1601.0, 1601.0, 1601.0, 1602.0, 1606.0, 1605.0, 1603.0, 1605.0, 1609.0, 1607.0, 1606.0, 1602.0, 1600.0, 1599.0, 1597.0, 1597.0, 1598.0, 1600.0, 1600.0, 1601.0, 1598.0, 1596.0, 1595.0, 1593.0, 1592.0, 1593.0, 1597.0, 1599.0, 1601.0, 1604.0, 1602.0, 1601.0, 1603.0, 1600.0, 1593.0, 1588.0, 1589.0, 1593.0, 1599.0, 1601.0, 1606.0, 1606.0, 1605.0, 1604.0, 1604.0, 1603.0, 1602.0, 1602.0, 1603.0, 1603.0, 1605.0, 1608.0, 1610.0, 1610.0, 1607.0, 1607.0, 1604.0, 1600.0, 1599.0, 1598.0, 1600.0, 1601.0, 1601.0, 1601.0, 1599.0, 1596.0, 1598.0, 1599.0, 1598.0, 1596.0, 1596.0, 1597.0, 1598.0, 1598.0, 1601.0, 1603.0, 1601.0, 1600.0, 1601.0, 1600.0, 1603.0, 1607.0, 1608.0, 1606.0, 1604.0, 1603.0, 1600.0, 1599.0, 1601.0, 1601.0, 1600.0, 1599.0, 1607.0, 1609.0, 1611.0, 1609.0, 1607.0, 1602.0, 1596.0, 1595.0, 1595.0, 1597.0, 1598.0, 1602.0, 1606.0, 1605.0, 1604.0, 1604.0, 1601.0, 1602.0, 1606.0, 1611.0]
    },
    "slices": {}
  }
}